# 80 rows of flux data
# 12 columns of flux data
# 
# total cross-sectional flux  1.043542e+00 /m^2/yr
#
#                             +x ram      -x wake      +y port -y starboard    +z zenith     -z nadir        Earth          Sun     anti-Sun      rot (x)      rot (y)      rot (z) 
# average speed (km/s)         38.35        37.07        43.71        30.58        32.50        43.45        39.56        27.85        28.18        33.97        34.85        36.28 
# total flux (#/m2/yr)  2.167133e-01 2.579006e-01 1.756166e-01 3.451903e-01 5.643618e-01 2.818493e-04 3.284359e-01 1.674413e-01 1.701204e-01 8.638223e-01 8.133029e-01 7.793467e-01 
# velocity (km/s)
     0.5                0.000000e+00 0.000000e+00 0.000000e+00 0.000000e+00 0.000000e+00 0.000000e+00 0.000000e+00 0.000000e+00 0.000000e+00 0.000000e+00 0.000000e+00 0.000000e+00 
     1.5                0.000000e+00 0.000000e+00 0.000000e+00 0.000000e+00 0.000000e+00 0.000000e+00 0.000000e+00 0.000000e+00 0.000000e+00 0.000000e+00 0.000000e+00 0.000000e+00 
     2.5                1.185617e-04 3.128670e-05 8.429339e-05 8.532729e-05 1.551814e-04 6.270753e-08 1.293175e-04 8.099805e-05 8.303557e-05 2.558375e-04 2.407750e-04 2.512219e-04 
     3.5                4.748652e-04 3.606180e-04 4.615448e-04 3.910593e-04 7.690166e-04 4.535330e-07 6.902259e-04 4.266855e-04 4.495938e-04 1.283869e-03 1.264006e-03 1.327308e-03 
     4.5                8.455508e-04 9.632991e-04 9.472016e-04 8.459320e-04 1.663230e-03 1.064281e-06 1.435270e-03 9.581490e-04 9.873183e-04 2.740800e-03 2.736328e-03 2.831217e-03 
     5.5                1.255597e-03 1.615482e-03 1.406948e-03 1.428220e-03 2.736823e-03 1.740524e-06 2.198470e-03 1.588577e-03 1.615759e-03 4.418583e-03 4.409305e-03 4.480314e-03 
     6.5                1.628621e-03 2.283595e-03 1.802046e-03 2.178668e-03 3.997731e-03 2.363217e-06 2.917372e-03 2.236987e-03 2.251353e-03 6.316740e-03 6.219649e-03 6.194739e-03 
     7.5                1.992996e-03 2.847775e-03 2.084934e-03 2.997614e-03 5.306530e-03 2.818281e-06 3.523412e-03 2.826986e-03 2.828795e-03 8.210021e-03 7.979790e-03 7.785213e-03 
     8.5                2.329842e-03 3.361755e-03 2.306178e-03 3.827514e-03 6.580202e-03 3.183478e-06 4.043174e-03 3.371470e-03 3.365223e-03 1.002921e-02 9.647707e-03 9.274913e-03 
     9.5                2.587091e-03 3.776981e-03 2.466350e-03 4.630293e-03 7.789964e-03 3.449438e-06 4.472611e-03 3.846830e-03 3.843063e-03 1.171913e-02 1.113418e-02 1.055470e-02 
    10.5                2.888257e-03 4.111573e-03 2.553660e-03 5.439340e-03 8.960710e-03 3.697171e-06 4.811759e-03 4.293121e-03 4.299598e-03 1.332864e-02 1.256183e-02 1.175736e-02 
    11.5                3.113483e-03 4.478660e-03 2.626344e-03 6.390962e-03 1.033563e-02 3.798786e-06 5.146687e-03 4.747801e-03 4.763210e-03 1.516835e-02 1.412802e-02 1.302576e-02 
    12.5                3.286606e-03 4.742944e-03 2.597616e-03 7.127418e-03 1.135985e-02 3.806982e-06 5.339649e-03 5.065248e-03 5.083314e-03 1.651100e-02 1.527743e-02 1.391899e-02 
    13.5                3.321999e-03 4.903528e-03 2.535882e-03 7.767104e-03 1.224884e-02 3.689267e-06 5.384980e-03 5.196493e-03 5.215574e-03 1.759142e-02 1.616925e-02 1.453873e-02 
    14.5                3.443904e-03 4.806755e-03 2.467631e-03 8.134411e-03 1.272766e-02 3.637413e-06 5.370880e-03 5.250724e-03 5.273404e-03 1.816516e-02 1.659332e-02 1.479946e-02 
    15.5                3.505369e-03 4.962289e-03 2.379426e-03 8.824751e-03 1.366373e-02 3.507359e-06 5.432822e-03 5.361280e-03 5.383577e-03 1.932297e-02 1.752459e-02 1.544417e-02 
    16.5                3.555329e-03 4.916612e-03 2.318485e-03 9.016469e-03 1.388645e-02 3.466759e-06 5.389889e-03 5.378495e-03 5.400306e-03 1.958407e-02 1.770548e-02 1.554771e-02 
    17.5                3.565755e-03 4.933485e-03 2.223765e-03 9.303720e-03 1.424174e-02 3.328047e-06 5.356564e-03 5.344021e-03 5.365812e-03 2.000187e-02 1.801458e-02 1.572506e-02 
    18.5                3.626052e-03 4.898255e-03 2.113343e-03 9.618138e-03 1.461524e-02 3.234703e-06 5.307408e-03 5.304947e-03 5.326257e-03 2.043861e-02 1.833248e-02 1.590457e-02 
    19.5                3.611083e-03 4.856775e-03 2.036323e-03 9.716374e-03 1.467980e-02 3.235083e-06 5.260421e-03 5.193519e-03 5.216310e-03 2.052252e-02 1.831373e-02 1.585756e-02 
    20.5                3.554427e-03 4.780200e-03 1.876086e-03 9.614433e-03 1.447502e-02 2.917787e-06 5.071152e-03 5.003938e-03 5.025073e-03 2.016818e-02 1.801652e-02 1.553480e-02 
    21.5                3.601465e-03 4.629380e-03 1.779793e-03 9.705594e-03 1.454144e-02 2.770917e-06 4.987624e-03 4.865594e-03 4.885424e-03 2.022230e-02 1.798128e-02 1.545259e-02 
    22.5                3.526223e-03 4.694749e-03 1.678712e-03 9.887149e-03 1.473689e-02 2.633917e-06 4.945182e-03 4.741859e-03 4.760496e-03 2.044858e-02 1.812016e-02 1.550557e-02 
    23.5                3.383783e-03 4.473182e-03 1.542000e-03 9.374943e-03 1.393761e-02 2.465866e-06 4.648120e-03 4.440542e-03 4.456963e-03 1.933503e-02 1.716007e-02 1.468855e-02 
    24.5                3.300878e-03 4.215524e-03 1.416064e-03 9.004568e-03 1.334296e-02 2.233819e-06 4.433586e-03 4.174630e-03 4.189838e-03 1.851491e-02 1.639385e-02 1.402240e-02 
    25.5                3.216988e-03 4.121897e-03 1.339675e-03 8.802419e-03 1.302155e-02 2.204014e-06 4.295966e-03 3.948543e-03 3.964108e-03 1.805744e-02 1.597436e-02 1.364722e-02 
    26.5                3.188195e-03 3.948729e-03 1.275988e-03 8.484045e-03 1.253100e-02 2.101057e-06 4.180809e-03 3.739225e-03 3.755069e-03 1.742064e-02 1.539448e-02 1.317843e-02 
    27.5                3.060652e-03 3.883429e-03 1.173658e-03 8.167501e-03 1.201419e-02 1.967126e-06 4.025462e-03 3.534497e-03 3.548326e-03 1.673979e-02 1.478865e-02 1.268627e-02 
    28.5                2.991480e-03 3.705756e-03 1.061866e-03 7.833092e-03 1.147031e-02 1.863225e-06 3.832069e-03 3.273749e-03 3.286326e-03 1.600412e-02 1.413748e-02 1.214335e-02 
    29.5                2.774726e-03 3.564114e-03 9.473318e-04 7.440486e-03 1.083897e-02 1.636730e-06 3.594558e-03 2.965609e-03 2.976602e-03 1.512935e-02 1.334564e-02 1.146584e-02 
    30.5                2.703218e-03 3.300895e-03 8.498663e-04 7.105185e-03 1.031045e-02 1.559070e-06 3.364087e-03 2.748964e-03 2.758392e-03 1.437570e-02 1.266314e-02 1.085922e-02 
    31.5                2.691633e-03 3.190188e-03 7.622998e-04 6.906139e-03 9.973769e-03 1.404900e-06 3.271406e-03 2.582434e-03 2.590937e-03 1.394103e-02 1.226754e-02 1.053615e-02 
    32.5                2.584273e-03 3.101382e-03 7.101785e-04 6.509430e-03 9.364438e-03 1.248856e-06 3.127994e-03 2.367015e-03 2.375121e-03 1.314867e-02 1.159702e-02 1.002911e-02 
    33.5                2.643625e-03 3.009250e-03 6.892137e-04 6.304960e-03 9.042445e-03 1.189099e-06 3.099700e-03 2.186579e-03 2.195109e-03 1.277002e-02 1.128521e-02 9.826945e-03 
    34.5                2.643293e-03 3.064932e-03 6.431479e-04 6.379011e-03 9.081074e-03 1.116172e-06 3.103596e-03 2.102223e-03 2.109305e-03 1.285371e-02 1.134370e-02 9.894531e-03 
    35.5                2.552764e-03 2.949088e-03 6.364215e-04 5.900828e-03 8.358895e-03 1.143250e-06 2.976939e-03 1.965804e-03 1.972676e-03 1.195262e-02 1.059193e-02 9.356697e-03 
    36.5                2.604873e-03 2.856887e-03 6.533115e-04 5.759511e-03 8.149424e-03 1.149631e-06 2.983080e-03 1.835969e-03 1.843951e-03 1.172327e-02 1.038808e-02 9.237815e-03 
    37.5                2.685922e-03 2.978142e-03 6.811350e-04 5.842561e-03 8.223634e-03 1.312300e-06 3.054794e-03 1.777508e-03 1.785879e-03 1.189446e-02 1.059348e-02 9.483367e-03 
    38.5                2.886687e-03 2.896706e-03 7.883515e-04 5.736081e-03 8.039313e-03 1.540964e-06 3.170923e-03 1.705803e-03 1.716896e-03 1.179756e-02 1.053028e-02 9.579354e-03 
    39.5                2.778831e-03 3.129736e-03 8.690289e-04 5.719448e-03 7.977113e-03 1.787723e-06 3.290987e-03 1.658332e-03 1.670165e-03 1.184860e-02 1.057970e-02 9.739123e-03 
    40.5                2.864633e-03 3.073674e-03 8.393174e-04 5.633073e-03 7.812209e-03 1.790504e-06 3.240780e-03 1.589358e-03 1.600377e-03 1.164441e-02 1.046764e-02 9.678823e-03 
    41.5                3.171763e-03 3.106527e-03 1.019198e-03 5.688994e-03 7.872811e-03 2.197813e-06 3.501831e-03 1.569987e-03 1.584168e-03 1.193134e-02 1.076910e-02 1.013602e-02 
    42.5                3.080612e-03 3.395209e-03 1.253003e-03 5.557385e-03 7.702347e-03 2.859138e-06 3.739012e-03 1.566139e-03 1.584660e-03 1.192549e-02 1.080623e-02 1.038843e-02 
    43.5                3.273506e-03 3.305471e-03 1.414801e-03 5.309999e-03 7.360728e-03 3.894098e-06 3.805345e-03 1.522273e-03 1.543825e-03 1.160936e-02 1.064151e-02 1.040749e-02 
    44.5                3.611062e-03 3.476986e-03 1.816471e-03 5.478475e-03 7.690949e-03 5.170173e-06 4.339730e-03 1.574397e-03 1.604657e-03 1.240343e-02 1.131319e-02 1.126886e-02 
    45.5                3.610968e-03 3.851330e-03 2.058907e-03 5.498512e-03 7.711839e-03 6.595526e-06 4.601299e-03 1.580560e-03 1.614455e-03 1.268705e-02 1.164584e-02 1.177097e-02 
    46.5                3.707937e-03 3.780864e-03 2.254626e-03 5.294215e-03 7.559515e-03 6.897281e-06 4.764389e-03 1.544541e-03 1.583136e-03 1.256322e-02 1.156989e-02 1.179101e-02 
    47.5                3.964133e-03 3.927648e-03 2.600456e-03 5.151718e-03 7.620332e-03 7.064628e-06 5.140821e-03 1.568161e-03 1.614652e-03 1.275744e-02 1.194962e-02 1.227139e-02 
    48.5                4.366497e-03 4.030171e-03 3.223730e-03 4.920015e-03 7.728242e-03 7.316270e-06 5.796440e-03 1.611002e-03 1.672201e-03 1.314165e-02 1.246551e-02 1.296177e-02 
    49.5                4.798660e-03 4.479736e-03 3.782439e-03 4.925101e-03 8.075234e-03 7.840089e-06 6.481368e-03 1.667136e-03 1.740784e-03 1.388665e-02 1.346343e-02 1.409465e-02 
    50.5                5.528371e-03 4.782381e-03 4.672262e-03 4.901414e-03 8.553203e-03 9.090134e-06 7.533060e-03 1.750397e-03 1.842216e-03 1.497400e-02 1.470424e-02 1.559069e-02 
    51.5                6.103148e-03 5.479612e-03 5.907378e-03 4.811145e-03 9.183359e-03 1.040277e-05 8.968939e-03 1.828467e-03 1.945802e-03 1.634919e-02 1.625313e-02 1.749159e-02 
    52.5                6.112757e-03 6.189448e-03 6.675666e-03 4.504570e-03 9.308810e-03 1.107545e-05 9.769976e-03 1.870877e-03 2.002565e-03 1.674820e-02 1.697206e-02 1.841818e-02 
    53.5                6.208168e-03 6.323924e-03 7.094757e-03 4.142948e-03 9.151456e-03 1.142760e-05 1.013013e-02 1.885077e-03 2.023529e-03 1.660402e-02 1.707825e-02 1.864802e-02 
    54.5                5.857786e-03 6.450124e-03 7.271859e-03 3.802523e-03 8.832702e-03 1.172632e-05 1.018971e-02 1.866757e-03 2.006626e-03 1.617972e-02 1.668577e-02 1.835221e-02 
    55.5                5.911179e-03 6.383819e-03 7.234041e-03 3.547587e-03 8.526280e-03 1.151996e-05 1.004483e-02 1.839521e-03 1.976023e-03 1.566610e-02 1.645853e-02 1.810635e-02 
    56.5                5.642616e-03 6.252267e-03 7.262522e-03 3.254847e-03 8.220047e-03 1.112749e-05 9.970898e-03 1.793736e-03 1.929293e-03 1.518171e-02 1.592436e-02 1.758555e-02 
    57.5                5.154520e-03 6.022150e-03 6.916665e-03 2.841060e-03 7.571409e-03 1.023698e-05 9.401215e-03 1.703767e-03 1.830676e-03 1.400724e-02 1.486572e-02 1.643024e-02 
    58.5                4.950856e-03 5.539847e-03 6.656426e-03 2.453235e-03 6.978018e-03 9.566641e-06 8.934936e-03 1.574938e-03 1.695454e-03 1.296782e-02 1.386858e-02 1.537633e-02 
    59.5                4.724387e-03 5.247813e-03 6.497565e-03 2.147836e-03 6.540983e-03 9.119197e-06 8.626721e-03 1.443448e-03 1.559891e-03 1.221780e-02 1.313303e-02 1.460415e-02 
    60.5                4.299743e-03 5.067716e-03 6.186853e-03 1.863595e-03 6.050284e-03 8.429437e-06 8.149136e-03 1.285498e-03 1.394683e-03 1.130463e-02 1.227417e-02 1.366558e-02 
    61.5                3.748685e-03 4.589294e-03 5.745457e-03 1.471277e-03 5.364659e-03 7.274147e-06 7.477094e-03 1.121904e-03 1.222134e-03 1.003281e-02 1.092596e-02 1.220852e-02 
    62.5                3.066809e-03 4.236833e-03 4.974273e-03 1.164926e-03 4.552029e-03 6.045591e-06 6.439702e-03 9.557977e-04 1.041037e-03 8.489791e-03 9.459856e-03 1.054455e-02 
    63.5                2.505002e-03 3.462604e-03 4.139856e-03 8.501952e-04 3.676230e-03 4.780642e-06 5.320586e-03 7.851488e-04 8.551519e-04 6.859558e-03 7.708190e-03 8.597133e-03 
    64.5                2.003439e-03 2.850713e-03 3.385986e-03 6.398627e-04 2.962812e-03 3.703839e-06 4.336027e-03 6.208647e-04 6.772316e-04 5.513618e-03 6.250967e-03 6.967875e-03 
    65.5                1.526952e-03 2.265267e-03 2.703925e-03 4.511824e-04 2.310389e-03 2.793211e-06 3.444238e-03 4.671533e-04 5.114782e-04 4.290775e-03 4.882547e-03 5.452546e-03 
    66.5                1.086366e-03 1.816688e-03 2.075718e-03 3.099910e-04 1.739089e-03 2.061976e-06 2.632630e-03 3.338939e-04 3.672485e-04 3.223099e-03 3.716587e-03 4.151023e-03 
    67.5                6.954517e-04 1.332338e-03 1.448907e-03 1.924232e-04 1.191020e-03 1.411736e-06 1.830281e-03 2.165060e-04 2.393392e-04 2.200898e-03 2.580009e-03 2.881985e-03 
    68.5                3.903113e-04 8.956408e-04 9.253713e-04 1.056689e-04 7.439773e-04 8.681507e-07 1.163611e-03 1.238911e-04 1.381628e-04 1.369200e-03 1.628574e-03 1.821184e-03 
    69.5                1.722633e-04 5.472615e-04 5.094386e-04 5.084061e-05 4.023184e-04 4.760472e-07 6.386711e-04 5.991084e-05 6.760719e-05 7.371037e-04 9.008187e-04 1.006023e-03 
    70.5                4.391637e-05 2.739996e-04 2.162177e-04 1.902924e-05 1.680862e-04 2.123153e-07 2.703146e-04 2.256017e-05 2.573556e-05 3.064323e-04 3.916958e-04 4.358936e-04 
    71.5                5.788488e-06 9.886396e-05 5.804662e-05 5.292812e-06 4.516737e-05 7.530452e-08 7.272928e-05 5.685522e-06 6.509788e-06 8.210129e-05 1.220528e-04 1.330426e-04 
    72.5                1.276376e-07 1.726396e-05 8.007988e-06 6.506563e-07 6.119250e-06 1.404459e-08 1.003877e-05 8.004666e-07 9.104875e-07 1.108181e-05 1.945499e-05 2.085966e-05 
    73.5                0.000000e+00 1.329446e-06 3.938046e-07 1.928878e-08 2.872303e-07 1.356048e-09 4.943097e-07 3.306656e-08 3.830433e-08 5.180495e-07 1.383180e-06 1.430162e-06 
    74.5                0.000000e+00 0.000000e+00 0.000000e+00 0.000000e+00 0.000000e+00 0.000000e+00 0.000000e+00 0.000000e+00 0.000000e+00 0.000000e+00 0.000000e+00 0.000000e+00 
    75.5                0.000000e+00 0.000000e+00 0.000000e+00 0.000000e+00 0.000000e+00 0.000000e+00 0.000000e+00 0.000000e+00 0.000000e+00 0.000000e+00 0.000000e+00 0.000000e+00 
    76.5                0.000000e+00 0.000000e+00 0.000000e+00 0.000000e+00 0.000000e+00 0.000000e+00 0.000000e+00 0.000000e+00 0.000000e+00 0.000000e+00 0.000000e+00 0.000000e+00 
    77.5                0.000000e+00 0.000000e+00 0.000000e+00 0.000000e+00 0.000000e+00 0.000000e+00 0.000000e+00 0.000000e+00 0.000000e+00 0.000000e+00 0.000000e+00 0.000000e+00 
    78.5                0.000000e+00 0.000000e+00 0.000000e+00 0.000000e+00 0.000000e+00 0.000000e+00 0.000000e+00 0.000000e+00 0.000000e+00 0.000000e+00 0.000000e+00 0.000000e+00 
    79.5                0.000000e+00 0.000000e+00 0.000000e+00 0.000000e+00 0.000000e+00 0.000000e+00 0.000000e+00 0.000000e+00 0.000000e+00 0.000000e+00 0.000000e+00 0.000000e+00 


