# 80 rows of flux data
# 12 columns of flux data
# 
# total cross-sectional flux  1.043542e+00 /m^2/yr
#
#                       +x vernal eq.           -x           +y           -y +z eclip. N. -z eclip. S.        Earth          Sun     anti-Sun      rot (x)      rot (y)      rot (z) 
# average speed (km/s)         37.60        37.71        37.65        37.69        45.24        30.87        39.56        27.85        28.18        33.96        33.96        37.66 
# total flux (#/m2/yr)  2.282005e-01 2.463130e-01 2.349312e-01 2.389515e-01 4.227944e-02 6.016011e-01 3.284359e-01 1.674413e-01 1.701204e-01 8.643278e-01 8.646151e-01 7.448363e-01 
# velocity (km/s)
     0.5                0.000000e+00 0.000000e+00 0.000000e+00 0.000000e+00 0.000000e+00 0.000000e+00 0.000000e+00 0.000000e+00 0.000000e+00 0.000000e+00 0.000000e+00 0.000000e+00 
     1.5                0.000000e+00 0.000000e+00 0.000000e+00 0.000000e+00 0.000000e+00 0.000000e+00 0.000000e+00 0.000000e+00 0.000000e+00 0.000000e+00 0.000000e+00 0.000000e+00 
     2.5                9.292940e-05 6.928333e-05 7.853615e-05 8.190984e-05 1.429594e-05 1.418997e-04 1.293175e-04 8.099805e-05 8.303557e-05 2.477750e-04 2.490085e-04 2.532052e-04 
     3.5                4.598152e-04 4.017440e-04 4.353939e-04 4.280552e-04 8.681946e-05 6.756768e-04 6.902259e-04 4.266855e-04 4.495938e-04 1.268789e-03 1.268532e-03 1.354244e-03 
     4.5                9.127433e-04 9.170169e-04 9.162409e-04 9.125640e-04 1.856850e-04 1.488664e-03 1.435270e-03 9.581490e-04 9.873183e-04 2.735415e-03 2.735802e-03 2.872720e-03 
     5.5                1.396240e-03 1.470640e-03 1.434132e-03 1.441136e-03 2.780219e-04 2.529882e-03 2.198470e-03 1.588577e-03 1.615759e-03 4.433566e-03 4.430146e-03 4.509914e-03 
     6.5                1.848646e-03 2.046244e-03 1.934795e-03 1.967374e-03 3.621332e-04 3.850218e-03 2.917372e-03 2.236987e-03 2.251353e-03 6.340442e-03 6.337962e-03 6.124350e-03 
     7.5                2.248095e-03 2.566869e-03 2.382865e-03 2.439013e-03 4.235795e-04 5.291126e-03 3.523412e-03 2.826986e-03 2.828795e-03 8.246692e-03 8.241154e-03 7.568034e-03 
     8.5                2.638288e-03 3.026284e-03 2.782689e-03 2.857848e-03 4.679251e-04 6.727744e-03 4.043174e-03 3.371470e-03 3.365223e-03 1.006429e-02 1.008049e-02 8.877997e-03 
     9.5                2.984636e-03 3.357262e-03 3.130169e-03 3.202304e-03 5.037804e-04 8.123294e-03 4.472611e-03 3.846830e-03 3.843063e-03 1.174844e-02 1.175868e-02 9.955008e-03 
    10.5                3.301015e-03 3.651726e-03 3.444754e-03 3.516446e-03 5.275526e-04 9.520203e-03 4.811759e-03 4.293121e-03 4.299598e-03 1.337513e-02 1.337630e-02 1.092883e-02 
    11.5                3.607564e-03 3.958626e-03 3.739146e-03 3.809278e-03 5.428758e-04 1.116627e-02 5.146687e-03 4.747801e-03 4.763210e-03 1.519776e-02 1.521057e-02 1.187071e-02 
    12.5                3.746413e-03 4.245697e-03 3.943327e-03 4.048311e-03 5.326131e-04 1.243454e-02 5.339649e-03 5.065248e-03 5.083314e-03 1.655359e-02 1.655700e-02 1.255313e-02 
    13.5                3.807339e-03 4.383415e-03 4.008134e-03 4.132855e-03 5.168816e-04 1.354988e-02 5.384980e-03 5.196493e-03 5.215574e-03 1.762712e-02 1.765596e-02 1.282551e-02 
    14.5                3.871014e-03 4.345413e-03 4.045503e-03 4.147819e-03 5.048128e-04 1.418014e-02 5.370880e-03 5.250724e-03 5.273404e-03 1.819918e-02 1.821433e-02 1.288770e-02 
    15.5                3.979328e-03 4.469280e-03 4.149006e-03 4.254944e-03 4.873468e-04 1.537696e-02 5.432822e-03 5.361280e-03 5.383577e-03 1.935297e-02 1.937038e-02 1.323380e-02 
    16.5                3.983060e-03 4.437787e-03 4.164276e-03 4.264310e-03 4.803159e-04 1.569715e-02 5.389889e-03 5.378495e-03 5.400306e-03 1.962198e-02 1.962137e-02 1.323296e-02 
    17.5                3.986578e-03 4.485033e-03 4.168098e-03 4.277667e-03 4.590484e-04 1.618658e-02 5.356564e-03 5.344021e-03 5.365812e-03 2.003016e-02 2.004179e-02 1.328487e-02 
    18.5                4.043779e-03 4.449983e-03 4.195698e-03 4.285180e-03 4.348298e-04 1.671237e-02 5.307408e-03 5.304947e-03 5.326257e-03 2.047067e-02 2.047447e-02 1.333184e-02 
    19.5                4.036126e-03 4.441510e-03 4.182348e-03 4.269916e-03 4.257419e-04 1.685682e-02 5.260421e-03 5.193519e-03 5.216310e-03 2.052739e-02 2.053558e-02 1.329971e-02 
    20.5                3.931506e-03 4.354400e-03 4.099328e-03 4.191925e-03 3.917674e-04 1.668892e-02 5.071152e-03 5.003938e-03 5.025073e-03 2.020622e-02 2.020561e-02 1.302098e-02 
    21.5                3.956122e-03 4.260059e-03 4.068981e-03 4.137287e-03 3.740733e-04 1.683336e-02 4.987624e-03 4.865594e-03 4.885424e-03 2.024007e-02 2.024108e-02 1.289885e-02 
    22.5                3.907333e-03 4.306881e-03 4.072613e-03 4.160546e-03 3.534148e-04 1.713578e-02 4.945182e-03 4.741859e-03 4.760496e-03 2.046652e-02 2.045274e-02 1.291475e-02 
    23.5                3.706660e-03 4.138851e-03 3.845693e-03 3.942381e-03 3.248823e-04 1.623644e-02 4.648120e-03 4.440542e-03 4.456963e-03 1.935003e-02 1.937698e-02 1.228004e-02 
    24.5                3.636426e-03 3.862769e-03 3.725755e-03 3.775404e-03 2.959201e-04 1.558058e-02 4.433586e-03 4.174630e-03 4.189838e-03 1.852856e-02 1.853234e-02 1.178096e-02 
    25.5                3.531535e-03 3.772772e-03 3.635080e-03 3.690151e-03 2.862195e-04 1.523532e-02 4.295966e-03 3.948543e-03 3.964108e-03 1.807787e-02 1.807231e-02 1.148867e-02 
    26.5                3.458949e-03 3.675822e-03 3.541939e-03 3.590098e-03 2.759638e-04 1.467715e-02 4.180809e-03 3.739225e-03 3.755069e-03 1.742579e-02 1.742746e-02 1.120537e-02 
    27.5                3.313199e-03 3.639636e-03 3.431045e-03 3.504892e-03 2.570409e-04 1.411208e-02 4.025462e-03 3.534497e-03 3.548326e-03 1.674386e-02 1.675015e-02 1.090435e-02 
    28.5                3.217897e-03 3.474418e-03 3.312818e-03 3.371057e-03 2.346588e-04 1.351649e-02 3.832069e-03 3.273749e-03 3.286326e-03 1.601174e-02 1.601924e-02 1.050550e-02 
    29.5                3.001212e-03 3.328975e-03 3.132533e-03 3.205630e-03 2.053098e-04 1.281081e-02 3.594558e-03 2.965609e-03 2.976602e-03 1.513455e-02 1.513658e-02 9.949515e-03 
    30.5                2.896284e-03 3.113174e-03 2.961077e-03 3.010674e-03 1.882232e-04 1.222385e-02 3.364087e-03 2.748964e-03 2.758392e-03 1.437822e-02 1.439105e-02 9.409884e-03 
    31.5                2.889705e-03 2.992370e-03 2.931842e-03 2.955141e-03 1.666038e-04 1.186277e-02 3.271406e-03 2.582434e-03 2.590937e-03 1.394662e-02 1.394288e-02 9.246759e-03 
    32.5                2.794894e-03 2.926007e-03 2.800658e-03 2.831224e-03 1.485243e-04 1.114783e-02 3.127994e-03 2.367015e-03 2.375121e-03 1.313868e-02 1.316734e-02 8.918009e-03 
    33.5                2.825040e-03 2.878709e-03 2.790072e-03 2.800847e-03 1.423154e-04 1.077265e-02 3.099700e-03 2.186579e-03 2.195109e-03 1.274919e-02 1.279551e-02 8.870483e-03 
    34.5                2.793285e-03 2.959795e-03 2.817977e-03 2.856659e-03 1.304075e-04 1.086173e-02 3.103596e-03 2.102223e-03 2.109305e-03 1.283596e-02 1.287325e-02 8.977330e-03 
    35.5                2.715045e-03 2.814242e-03 2.725206e-03 2.748136e-03 1.292573e-04 9.997738e-03 2.976939e-03 1.965804e-03 1.972676e-03 1.194221e-02 1.196436e-02 8.640422e-03 
    36.5                2.718919e-03 2.717448e-03 2.764041e-03 2.763747e-03 1.370186e-04 9.743201e-03 2.983080e-03 1.835969e-03 1.843951e-03 1.173490e-02 1.169190e-02 8.610138e-03 
    37.5                2.665115e-03 2.962163e-03 2.808327e-03 2.875332e-03 1.464564e-04 9.844950e-03 3.054794e-03 1.777508e-03 1.785879e-03 1.191779e-02 1.188931e-02 8.885810e-03 
    38.5                2.757437e-03 3.061392e-03 2.845728e-03 2.917904e-03 1.736492e-04 9.598129e-03 3.170923e-03 1.705803e-03 1.716896e-03 1.177524e-02 1.179774e-02 9.098409e-03 
    39.5                2.842963e-03 3.119228e-03 2.941333e-03 3.004038e-03 1.940772e-04 9.511769e-03 3.290987e-03 1.658332e-03 1.670165e-03 1.181857e-02 1.182224e-02 9.350222e-03 
    40.5                2.965487e-03 2.939039e-03 2.997888e-03 2.993465e-03 1.836001e-04 9.333056e-03 3.240780e-03 1.589358e-03 1.600377e-03 1.167373e-02 1.162193e-02 9.341428e-03 
    41.5                3.213723e-03 3.043735e-03 3.200132e-03 3.165131e-03 2.200489e-04 9.347319e-03 3.501831e-03 1.569987e-03 1.584168e-03 1.194775e-02 1.188188e-02 9.907850e-03 
    42.5                3.265384e-03 3.292256e-03 3.265597e-03 3.271830e-03 2.830129e-04 9.060163e-03 3.739012e-03 1.566139e-03 1.584660e-03 1.187663e-02 1.189489e-02 1.028290e-02 
    43.5                3.385754e-03 3.269080e-03 3.285369e-03 3.257622e-03 3.444532e-04 8.604525e-03 3.805345e-03 1.522273e-03 1.543825e-03 1.156713e-02 1.163646e-02 1.036080e-02 
    44.5                3.723360e-03 3.507723e-03 3.607895e-03 3.561742e-03 4.898267e-04 8.885147e-03 4.339730e-03 1.574397e-03 1.604657e-03 1.232154e-02 1.235341e-02 1.130834e-02 
    45.5                3.708661e-03 3.942274e-03 3.704878e-03 3.756643e-03 5.928630e-04 8.875509e-03 4.601299e-03 1.580560e-03 1.614455e-03 1.257856e-02 1.270763e-02 1.185558e-02 
    46.5                3.823202e-03 3.845164e-03 3.763693e-03 3.774794e-03 6.501148e-04 8.577717e-03 4.764389e-03 1.544541e-03 1.583136e-03 1.244508e-02 1.255234e-02 1.194153e-02 
    47.5                4.010680e-03 3.931079e-03 3.993131e-03 3.978296e-03 7.282414e-04 8.425249e-03 5.140821e-03 1.568161e-03 1.614652e-03 1.272732e-02 1.271035e-02 1.250591e-02 
    48.5                4.311823e-03 4.262752e-03 4.199036e-03 4.189249e-03 9.074005e-04 8.201575e-03 5.796440e-03 1.611002e-03 1.672201e-03 1.301376e-02 1.313911e-02 1.332360e-02 
    49.5                4.867772e-03 4.470841e-03 4.641789e-03 4.557187e-03 1.073559e-03 8.333610e-03 6.481368e-03 1.667136e-03 1.740784e-03 1.383689e-02 1.393578e-02 1.456434e-02 
    50.5                5.510882e-03 4.783672e-03 5.261525e-03 5.107707e-03 1.326625e-03 8.452116e-03 7.533060e-03 1.750397e-03 1.842216e-03 1.498978e-02 1.494223e-02 1.622297e-02 
    51.5                6.112902e-03 5.472917e-03 5.950256e-03 5.809432e-03 1.619514e-03 8.498865e-03 8.968939e-03 1.828467e-03 1.945802e-03 1.633682e-02 1.621210e-02 1.834416e-02 
    52.5                6.106013e-03 6.110699e-03 6.233293e-03 6.244364e-03 1.779222e-03 8.143828e-03 9.769976e-03 1.870877e-03 2.002565e-03 1.679795e-02 1.660643e-02 1.940504e-02 
    53.5                5.974710e-03 6.489326e-03 6.257853e-03 6.378570e-03 1.850918e-03 7.638300e-03 1.013013e-02 1.885077e-03 2.023529e-03 1.665545e-02 1.651874e-02 1.971523e-02 
    54.5                5.880567e-03 6.492150e-03 6.129281e-03 6.273977e-03 1.888651e-03 7.117623e-03 1.018971e-02 1.866757e-03 2.006626e-03 1.614111e-02 1.611308e-02 1.945326e-02 
    55.5                5.977286e-03 6.362108e-03 6.013310e-03 6.100893e-03 1.868030e-03 6.721375e-03 1.004483e-02 1.839521e-03 1.976023e-03 1.563447e-02 1.580411e-02 1.919868e-02 
    56.5                5.799091e-03 6.105233e-03 5.918556e-03 5.987742e-03 1.871280e-03 6.290239e-03 9.970898e-03 1.793736e-03 1.929293e-03 1.517961e-02 1.516838e-02 1.869887e-02 
    57.5                5.264412e-03 5.833158e-03 5.525594e-03 5.652109e-03 1.774026e-03 5.623706e-03 9.401215e-03 1.703767e-03 1.830676e-03 1.407068e-02 1.400967e-02 1.749535e-02 
    58.5                4.925451e-03 5.515829e-03 5.152967e-03 5.289641e-03 1.699451e-03 4.990796e-03 8.934936e-03 1.574938e-03 1.695454e-03 1.300216e-02 1.300054e-02 1.640005e-02 
    59.5                4.754637e-03 5.226312e-03 4.896133e-03 5.002463e-03 1.659528e-03 4.509598e-03 8.626721e-03 1.443448e-03 1.559891e-03 1.221088e-02 1.227631e-02 1.560750e-02 
    60.5                4.346691e-03 4.980300e-03 4.574455e-03 4.717932e-03 1.556890e-03 4.021072e-03 8.149136e-03 1.285498e-03 1.394683e-03 1.133016e-02 1.135800e-02 1.462336e-02 
    61.5                3.813137e-03 4.551299e-03 4.080071e-03 4.240062e-03 1.414982e-03 3.347448e-03 7.477094e-03 1.121904e-03 1.222134e-03 1.000901e-02 1.004350e-02 1.310878e-02 
    62.5                3.212329e-03 4.029113e-03 3.496769e-03 3.679990e-03 1.199262e-03 2.734493e-03 6.439702e-03 9.557977e-04 1.041037e-03 8.533589e-03 8.578626e-03 1.132137e-02 
    63.5                2.531995e-03 3.326352e-03 2.873564e-03 3.050610e-03 9.898239e-04 2.107640e-03 5.320586e-03 7.851488e-04 8.551519e-04 6.950195e-03 6.897720e-03 9.248229e-03 
    64.5                2.053192e-03 2.732713e-03 2.307629e-03 2.457432e-03 7.978080e-04 1.644390e-03 4.336027e-03 6.208647e-04 6.772316e-04 5.563192e-03 5.581331e-03 7.503291e-03 
    65.5                1.580160e-03 2.128795e-03 1.830181e-03 1.952511e-03 6.194413e-04 1.216025e-03 3.444238e-03 4.671533e-04 5.114782e-04 4.357118e-03 4.295222e-03 5.884398e-03 
    66.5                1.151063e-03 1.680868e-03 1.377606e-03 1.497881e-03 4.614706e-04 8.704634e-04 2.632630e-03 3.338939e-04 3.672485e-04 3.280667e-03 3.240652e-03 4.483338e-03 
    67.5                7.435129e-04 1.219763e-03 9.482705e-04 1.053962e-03 3.100342e-04 5.630609e-04 1.830281e-03 2.165060e-04 2.393392e-04 2.256085e-03 2.221230e-03 3.114634e-03 
    68.5                4.242463e-04 8.269933e-04 5.847094e-04 6.729488e-04 1.869247e-04 3.250571e-04 1.163611e-03 1.238911e-04 1.381628e-04 1.399405e-03 1.393503e-03 1.970650e-03 
    69.5                1.902576e-04 5.042458e-04 3.111646e-04 3.807403e-04 9.571627e-05 1.616486e-04 6.386711e-04 5.991084e-05 6.760719e-05 7.595273e-04 7.602039e-04 1.088145e-03 
    70.5                5.845850e-05 2.500796e-04 1.242578e-04 1.662746e-04 3.675837e-05 6.110510e-05 2.703146e-04 2.256017e-05 2.573556e-05 3.153571e-04 3.305948e-04 4.704884e-04 
    71.5                1.009607e-05 8.714449e-05 3.296829e-05 5.022874e-05 8.895651e-06 1.554733e-05 7.272928e-05 5.685522e-06 6.509788e-06 8.924515e-05 1.017175e-04 1.417138e-04 
    72.5                3.991979e-07 1.584414e-05 4.084891e-06 7.634110e-06 9.887849e-07 1.764377e-06 1.003877e-05 8.004666e-07 9.104875e-07 1.238406e-05 1.657913e-05 2.197911e-05 
    73.5                9.688449e-12 1.256847e-06 1.618403e-07 4.517016e-07 3.510095e-08 5.384618e-08 4.943097e-07 3.306656e-08 3.830433e-08 6.299026e-07 1.261438e-06 1.470955e-06 
    74.5                0.000000e+00 0.000000e+00 0.000000e+00 0.000000e+00 0.000000e+00 0.000000e+00 0.000000e+00 0.000000e+00 0.000000e+00 0.000000e+00 0.000000e+00 0.000000e+00 
    75.5                0.000000e+00 0.000000e+00 0.000000e+00 0.000000e+00 0.000000e+00 0.000000e+00 0.000000e+00 0.000000e+00 0.000000e+00 0.000000e+00 0.000000e+00 0.000000e+00 
    76.5                0.000000e+00 0.000000e+00 0.000000e+00 0.000000e+00 0.000000e+00 0.000000e+00 0.000000e+00 0.000000e+00 0.000000e+00 0.000000e+00 0.000000e+00 0.000000e+00 
    77.5                0.000000e+00 0.000000e+00 0.000000e+00 0.000000e+00 0.000000e+00 0.000000e+00 0.000000e+00 0.000000e+00 0.000000e+00 0.000000e+00 0.000000e+00 0.000000e+00 
    78.5                0.000000e+00 0.000000e+00 0.000000e+00 0.000000e+00 0.000000e+00 0.000000e+00 0.000000e+00 0.000000e+00 0.000000e+00 0.000000e+00 0.000000e+00 0.000000e+00 
    79.5                0.000000e+00 0.000000e+00 0.000000e+00 0.000000e+00 0.000000e+00 0.000000e+00 0.000000e+00 0.000000e+00 0.000000e+00 0.000000e+00 0.000000e+00 0.000000e+00 


