# 80 rows of flux data
# 12 columns of flux data
# 
# total cross-sectional flux  1.119544e+00 /m^2/yr
#
#                             +x ram      -x wake      +y port -y starboard    +z zenith     -z nadir        Earth          Sun     anti-Sun      rot (x)      rot (y)      rot (z) 
# average speed (km/s)         37.12        37.12        28.32        34.94        35.96        31.62        37.14        27.54        27.54        33.30        36.54        33.64 
# total flux (#/m2/yr)  2.512534e-01 2.510103e-01 3.646732e-01 3.010350e-01 5.153520e-01 4.065676e-04 2.508501e-01 1.849780e-01 1.849807e-01 9.314703e-01 8.020622e-01 9.086328e-01 
# velocity (km/s)
     0.5                0.000000e+00 0.000000e+00 0.000000e+00 0.000000e+00 0.000000e+00 0.000000e+00 0.000000e+00 0.000000e+00 0.000000e+00 0.000000e+00 0.000000e+00 0.000000e+00 
     1.5                0.000000e+00 0.000000e+00 0.000000e+00 0.000000e+00 0.000000e+00 0.000000e+00 0.000000e+00 0.000000e+00 0.000000e+00 0.000000e+00 0.000000e+00 0.000000e+00 
     2.5                9.115269e-05 9.197238e-05 9.347239e-05 6.025606e-05 1.073202e-04 9.613091e-08 9.076796e-05 7.529577e-05 7.553227e-05 2.085755e-04 2.276564e-04 2.643557e-04 
     3.5                4.317406e-04 4.325370e-04 3.669770e-04 3.147035e-04 6.834997e-04 4.593535e-07 4.296015e-04 3.864534e-04 3.861908e-04 1.086072e-03 1.215979e-03 1.202449e-03 
     4.5                9.545207e-04 9.538231e-04 8.067305e-04 8.459269e-04 1.784644e-03 9.663318e-07 9.494979e-04 9.542460e-04 9.543738e-04 2.718383e-03 2.900478e-03 2.772055e-03 
     5.5                1.539751e-03 1.537785e-03 1.417136e-03 1.537840e-03 3.050662e-03 1.654099e-06 1.530948e-03 1.681539e-03 1.681780e-03 4.739198e-03 4.815553e-03 4.694750e-03 
     6.5                2.146659e-03 2.142667e-03 2.270801e-03 2.324897e-03 4.413018e-03 2.516941e-06 2.134394e-03 2.468292e-03 2.468845e-03 7.098328e-03 6.842888e-03 6.934667e-03 
     7.5                2.682289e-03 2.678305e-03 3.263039e-03 3.044896e-03 5.606038e-03 3.467641e-06 2.667254e-03 3.171204e-03 3.171497e-03 9.396510e-03 8.623125e-03 9.119097e-03 
     8.5                3.142222e-03 3.136832e-03 4.258165e-03 3.735590e-03 6.706227e-03 4.404547e-06 3.125375e-03 3.797312e-03 3.798350e-03 1.158794e-02 1.022032e-02 1.118223e-02 
     9.5                3.565750e-03 3.560150e-03 5.286026e-03 4.303646e-03 7.625641e-03 5.374443e-06 3.547045e-03 4.365565e-03 4.366268e-03 1.358518e-02 1.160637e-02 1.311844e-02 
    10.5                3.873098e-03 3.865869e-03 6.298466e-03 4.798218e-03 8.393197e-03 6.225497e-06 3.853418e-03 4.823860e-03 4.824922e-03 1.539076e-02 1.269758e-02 1.480446e-02 
    11.5                4.235086e-03 4.228211e-03 7.553122e-03 5.311175e-03 9.273030e-03 7.365975e-06 4.214449e-03 5.369980e-03 5.370936e-03 1.748585e-02 1.396468e-02 1.681470e-02 
    12.5                4.489824e-03 4.481894e-03 8.539170e-03 5.762299e-03 9.894626e-03 8.289371e-06 4.468166e-03 5.799224e-03 5.799747e-03 1.913283e-02 1.485662e-02 1.835004e-02 
    13.5                4.585472e-03 4.577442e-03 9.494476e-03 6.040436e-03 1.038105e-02 8.780426e-06 4.566560e-03 5.960649e-03 5.961753e-03 2.047106e-02 1.540234e-02 1.956567e-02 
    14.5                4.568913e-03 4.562313e-03 1.001398e-02 5.905264e-03 1.028985e-02 9.310291e-06 4.550366e-03 5.976353e-03 5.977446e-03 2.074321e-02 1.530504e-02 1.987821e-02 
    15.5                4.699464e-03 4.691271e-03 1.102573e-02 6.223194e-03 1.074316e-02 1.014633e-05 4.682955e-03 6.089676e-03 6.090544e-03 2.215643e-02 1.586687e-02 2.118869e-02 
    16.5                4.661437e-03 4.654034e-03 1.125472e-02 6.200210e-03 1.069350e-02 1.032229e-05 4.645681e-03 6.075619e-03 6.076480e-03 2.228636e-02 1.577683e-02 2.131224e-02 
    17.5                4.690198e-03 4.681648e-03 1.161771e-02 6.239537e-03 1.078922e-02 1.062315e-05 4.675210e-03 6.058552e-03 6.059646e-03 2.267701e-02 1.589957e-02 2.167648e-02 
    18.5                4.690360e-03 4.682993e-03 1.207441e-02 6.265479e-03 1.079155e-02 1.103240e-05 4.676590e-03 5.974868e-03 5.975527e-03 2.308577e-02 1.589558e-02 2.207307e-02 
    19.5                4.685450e-03 4.677923e-03 1.214194e-02 6.280522e-03 1.069108e-02 1.161318e-05 4.671879e-03 5.872860e-03 5.873603e-03 2.308322e-02 1.581047e-02 2.209525e-02 
    20.5                4.580618e-03 4.573800e-03 1.192720e-02 6.268655e-03 1.050830e-02 1.131218e-05 4.568546e-03 5.646904e-03 5.647736e-03 2.275687e-02 1.549548e-02 2.172141e-02 
    21.5                4.494701e-03 4.489155e-03 1.196848e-02 6.106344e-03 1.025197e-02 1.131770e-05 4.484008e-03 5.415796e-03 5.416434e-03 2.245241e-02 1.516806e-02 2.148107e-02 
    22.5                4.562674e-03 4.555718e-03 1.222733e-02 6.267868e-03 1.039926e-02 1.150191e-05 4.553202e-03 5.346162e-03 5.346451e-03 2.290302e-02 1.538066e-02 2.189265e-02 
    23.5                4.297305e-03 4.290684e-03 1.147485e-02 6.040384e-03 9.853443e-03 1.081348e-05 4.289114e-03 4.994719e-03 4.995201e-03 2.168752e-02 1.453628e-02 2.068130e-02 
    24.5                4.117597e-03 4.112253e-03 1.091373e-02 5.725841e-03 9.274544e-03 1.059908e-05 4.109147e-03 4.679038e-03 4.679738e-03 2.055293e-02 1.379336e-02 1.965052e-02 
    25.5                4.010899e-03 4.004346e-03 1.065659e-02 5.718470e-03 9.037755e-03 1.039474e-05 4.003523e-03 4.409063e-03 4.409139e-03 2.015808e-02 1.343683e-02 1.925446e-02 
    26.5                3.900610e-03 3.895907e-03 1.009130e-02 5.478885e-03 8.612699e-03 1.026798e-05 3.892796e-03 4.146737e-03 4.147103e-03 1.919005e-02 1.292739e-02 1.838173e-02 
    27.5                3.813827e-03 3.809041e-03 9.601438e-03 5.502852e-03 8.385904e-03 9.871615e-06 3.807001e-03 3.947402e-03 3.947352e-03 1.863398e-02 1.261108e-02 1.782183e-02 
    28.5                3.652702e-03 3.647409e-03 9.046505e-03 5.282043e-03 7.977206e-03 9.247083e-06 3.646319e-03 3.673515e-03 3.674122e-03 1.768396e-02 1.203302e-02 1.691241e-02 
    29.5                3.502715e-03 3.497093e-03 8.589175e-03 5.130193e-03 7.641849e-03 8.741723e-06 3.497759e-03 3.331619e-03 3.331680e-03 1.692257e-02 1.152747e-02 1.617083e-02 
    30.5                3.260333e-03 3.255999e-03 8.096134e-03 4.774207e-03 7.093854e-03 8.438243e-06 3.256783e-03 3.035774e-03 3.035617e-03 1.582261e-02 1.072009e-02 1.512614e-02 
    31.5                3.195577e-03 3.192086e-03 7.688967e-03 4.676801e-03 6.819215e-03 8.177785e-06 3.191584e-03 2.868614e-03 2.868622e-03 1.519485e-02 1.040554e-02 1.455678e-02 
    32.5                3.078881e-03 3.073011e-03 7.077270e-03 4.614428e-03 6.561072e-03 7.374430e-06 3.075824e-03 2.631235e-03 2.631202e-03 1.442343e-02 1.001977e-02 1.380572e-02 
    33.5                3.037800e-03 3.034910e-03 6.627021e-03 4.457781e-03 6.320529e-03 7.163702e-06 3.034607e-03 2.401741e-03 2.401715e-03 1.374740e-02 9.765881e-03 1.319895e-02 
    34.5                3.092797e-03 3.090688e-03 6.643677e-03 4.587613e-03 6.417072e-03 7.163239e-06 3.090497e-03 2.290432e-03 2.290382e-03 1.392325e-02 9.928916e-03 1.336488e-02 
    35.5                2.956126e-03 2.951318e-03 5.926288e-03 4.418354e-03 6.100736e-03 6.317532e-06 2.953884e-03 2.154039e-03 2.153654e-03 1.293641e-02 9.469227e-03 1.241955e-02 
    36.5                2.934325e-03 2.931811e-03 5.632233e-03 4.220443e-03 5.893315e-03 6.125574e-06 2.931477e-03 1.994450e-03 1.994489e-03 1.238092e-02 9.271263e-03 1.195382e-02 
    37.5                2.997466e-03 2.993716e-03 5.676573e-03 4.414690e-03 6.114822e-03 6.075797e-06 2.996702e-03 1.922831e-03 1.922430e-03 1.272483e-02 9.547676e-03 1.223030e-02 
    38.5                2.984370e-03 2.982725e-03 5.299618e-03 4.253956e-03 5.909260e-03 5.864579e-06 2.982874e-03 1.818876e-03 1.818772e-03 1.212461e-02 9.372422e-03 1.175907e-02 
    39.5                3.202101e-03 3.200159e-03 5.229885e-03 4.484933e-03 6.312962e-03 5.708231e-06 3.201662e-03 1.779579e-03 1.779121e-03 1.253906e-02 1.001901e-02 1.216154e-02 
    40.5                3.115330e-03 3.115628e-03 5.016529e-03 4.372325e-03 6.189736e-03 5.480865e-06 3.114232e-03 1.704113e-03 1.704017e-03 1.217877e-02 9.799313e-03 1.176958e-02 
    41.5                3.197070e-03 3.194943e-03 4.847230e-03 4.412438e-03 6.224570e-03 5.351740e-06 3.196117e-03 1.624070e-03 1.623725e-03 1.208123e-02 9.961081e-03 1.176435e-02 
    42.5                3.465232e-03 3.465276e-03 4.669842e-03 4.636413e-03 6.708345e-03 5.141082e-06 3.463521e-03 1.661696e-03 1.661398e-03 1.246529e-02 1.075561e-02 1.218278e-02 
    43.5                3.318718e-03 3.315324e-03 4.232040e-03 4.385140e-03 6.487325e-03 4.762367e-06 3.317942e-03 1.574830e-03 1.574264e-03 1.174798e-02 1.035629e-02 1.143693e-02 
    44.5                3.597724e-03 3.599166e-03 4.257577e-03 4.492658e-03 6.781118e-03 5.002235e-06 3.594397e-03 1.592703e-03 1.592326e-03 1.207963e-02 1.103374e-02 1.193726e-02 
    45.5                3.832945e-03 3.829244e-03 4.259353e-03 4.854270e-03 7.422105e-03 4.974451e-06 3.831691e-03 1.662647e-03 1.662421e-03 1.284114e-02 1.189645e-02 1.254708e-02 
    46.5                3.802821e-03 3.804669e-03 4.078214e-03 4.706345e-03 7.261548e-03 4.828003e-06 3.802305e-03 1.587062e-03 1.586532e-03 1.245548e-02 1.173363e-02 1.224819e-02 
    47.5                3.961539e-03 3.957255e-03 3.952648e-03 4.781883e-03 7.510335e-03 4.768090e-06 3.958883e-03 1.575825e-03 1.575416e-03 1.260764e-02 1.216796e-02 1.247949e-02 
    48.5                4.100389e-03 4.101420e-03 3.719621e-03 4.738372e-03 7.656984e-03 4.933177e-06 4.097788e-03 1.630995e-03 1.630647e-03 1.252697e-02 1.252883e-02 1.252202e-02 
    49.5                4.527076e-03 4.529382e-03 3.692027e-03 5.039911e-03 8.444568e-03 5.018121e-06 4.525658e-03 1.671409e-03 1.670618e-03 1.336827e-02 1.380342e-02 1.339756e-02 
    50.5                4.882410e-03 4.885883e-03 3.690880e-03 5.267116e-03 8.970973e-03 5.381889e-06 4.879590e-03 1.740285e-03 1.739692e-03 1.396465e-02 1.480154e-02 1.413331e-02 
    51.5                5.625848e-03 5.628184e-03 3.642540e-03 5.731907e-03 1.020060e-02 5.888106e-06 5.621534e-03 1.840481e-03 1.840079e-03 1.528474e-02 1.694614e-02 1.567351e-02 
    52.5                6.179094e-03 6.186497e-03 3.440350e-03 6.135288e-03 1.143768e-02 5.934822e-06 6.176373e-03 1.911878e-03 1.910606e-03 1.646437e-02 1.877597e-02 1.679313e-02 
    53.5                6.236201e-03 6.237152e-03 3.122640e-03 6.017871e-03 1.162703e-02 5.803287e-06 6.233707e-03 1.940605e-03 1.940024e-03 1.631370e-02 1.901496e-02 1.662958e-02 
    54.5                6.363583e-03 6.357671e-03 2.898432e-03 5.992365e-03 1.181962e-02 5.638557e-06 6.362022e-03 1.944419e-03 1.944306e-03 1.628851e-02 1.934970e-02 1.669149e-02 
    55.5                6.097943e-03 6.092352e-03 2.619342e-03 5.784758e-03 1.166137e-02 5.331808e-06 6.094930e-03 1.908960e-03 1.908048e-03 1.580044e-02 1.880517e-02 1.593001e-02 
    56.5                6.092841e-03 6.090740e-03 2.468866e-03 5.598343e-03 1.141102e-02 5.248471e-06 6.089536e-03 1.882782e-03 1.882432e-03 1.535180e-02 1.859458e-02 1.569699e-02 
    57.5                5.769471e-03 5.763115e-03 2.231998e-03 5.336429e-03 1.096476e-02 4.829216e-06 5.767238e-03 1.826307e-03 1.825685e-03 1.460885e-02 1.773560e-02 1.482821e-02 
    58.5                5.303950e-03 5.303459e-03 1.903058e-03 4.815134e-03 1.007632e-02 4.427213e-06 5.302916e-03 1.697642e-03 1.696963e-03 1.325689e-02 1.630936e-02 1.349313e-02 
    59.5                5.059458e-03 5.056193e-03 1.697543e-03 4.485714e-03 9.521661e-03 4.162508e-06 5.056782e-03 1.567867e-03 1.567496e-03 1.242174e-02 1.547628e-02 1.272469e-02 
    60.5                4.844008e-03 4.836157e-03 1.506472e-03 4.273044e-03 9.181600e-03 3.838877e-06 4.842579e-03 1.426061e-03 1.425967e-03 1.184678e-02 1.485939e-02 1.211060e-02 
    61.5                4.388446e-03 4.388592e-03 1.255247e-03 3.792653e-03 8.307715e-03 3.524375e-06 4.386580e-03 1.256364e-03 1.255922e-03 1.059886e-02 1.347221e-02 1.087638e-02 
    62.5                3.903589e-03 3.898056e-03 9.714960e-04 3.400436e-03 7.651072e-03 2.855393e-06 3.902968e-03 1.095308e-03 1.094939e-03 9.562788e-03 1.216254e-02 9.624858e-03 
    63.5                3.191717e-03 3.184077e-03 7.419813e-04 2.735388e-03 6.246899e-03 2.316954e-06 3.191277e-03 9.135336e-04 9.134111e-04 7.747038e-03 9.937004e-03 7.806812e-03 
    64.5                2.617393e-03 2.614328e-03 5.658808e-04 2.228935e-03 5.142137e-03 1.864471e-06 2.617292e-03 7.414371e-04 7.411712e-04 6.331147e-03 8.166029e-03 6.380071e-03 
    65.5                2.073170e-03 2.071286e-03 4.133693e-04 1.748653e-03 4.082884e-03 1.480079e-06 2.073339e-03 5.705347e-04 5.703718e-04 4.987032e-03 6.477582e-03 5.026464e-03 
    66.5                1.628371e-03 1.624734e-03 2.833039e-04 1.370794e-03 3.270197e-03 1.099436e-06 1.628726e-03 4.253404e-04 4.251931e-04 3.940771e-03 5.130588e-03 3.928566e-03 
    67.5                1.171400e-03 1.166780e-03 1.762945e-04 9.866948e-04 2.396433e-03 7.422462e-07 1.171862e-03 2.902726e-04 2.902524e-04 2.853180e-03 3.721738e-03 2.814477e-03 
    68.5                7.639522e-04 7.616186e-04 9.335886e-05 6.463578e-04 1.609292e-03 4.648279e-07 7.644906e-04 1.773674e-04 1.772731e-04 1.886811e-03 2.463676e-03 1.830731e-03 
    69.5                4.488449e-04 4.470048e-04 4.041100e-05 3.840312e-04 9.819937e-04 2.349396e-07 4.495476e-04 9.340545e-05 9.338704e-05 1.131182e-03 1.472592e-03 1.072648e-03 
    70.5                2.117852e-04 2.108559e-04 1.252780e-05 1.870559e-04 4.912071e-04 9.513025e-08 2.122132e-04 3.928532e-05 3.926511e-05 5.546403e-04 7.157319e-04 5.068282e-04 
    71.5                6.410683e-05 6.373518e-05 1.722174e-06 6.540904e-05 1.766505e-04 1.812388e-08 6.438588e-05 1.079595e-05 1.079280e-05 1.947045e-04 2.381440e-04 1.575324e-04 
    72.5                9.646182e-06 9.561557e-06 5.658011e-08 1.122574e-05 3.079878e-05 1.692154e-09 9.723914e-06 1.610655e-06 1.611887e-06 3.331211e-05 3.930267e-05 2.436675e-05 
    73.5                4.991536e-07 4.925312e-07 0.000000e+00 8.495951e-07 2.339383e-06 0.000000e+00 5.069462e-07 6.730505e-08 6.731138e-08 2.497321e-06 2.641807e-06 1.406678e-06 
    74.5                0.000000e+00 0.000000e+00 0.000000e+00 0.000000e+00 0.000000e+00 0.000000e+00 0.000000e+00 0.000000e+00 0.000000e+00 0.000000e+00 0.000000e+00 0.000000e+00 
    75.5                0.000000e+00 0.000000e+00 0.000000e+00 0.000000e+00 0.000000e+00 0.000000e+00 0.000000e+00 0.000000e+00 0.000000e+00 0.000000e+00 0.000000e+00 0.000000e+00 
    76.5                0.000000e+00 0.000000e+00 0.000000e+00 0.000000e+00 0.000000e+00 0.000000e+00 0.000000e+00 0.000000e+00 0.000000e+00 0.000000e+00 0.000000e+00 0.000000e+00 
    77.5                0.000000e+00 0.000000e+00 0.000000e+00 0.000000e+00 0.000000e+00 0.000000e+00 0.000000e+00 0.000000e+00 0.000000e+00 0.000000e+00 0.000000e+00 0.000000e+00 
    78.5                0.000000e+00 0.000000e+00 0.000000e+00 0.000000e+00 0.000000e+00 0.000000e+00 0.000000e+00 0.000000e+00 0.000000e+00 0.000000e+00 0.000000e+00 0.000000e+00 
    79.5                0.000000e+00 0.000000e+00 0.000000e+00 0.000000e+00 0.000000e+00 0.000000e+00 0.000000e+00 0.000000e+00 0.000000e+00 0.000000e+00 0.000000e+00 0.000000e+00 


