# 80 rows of flux data
# 12 columns of flux data
# 
# total cross-sectional flux  2.324451e+00 /m^2/yr
#
#                             +x ram      -x wake      +y port -y starboard    +z zenith     -z nadir        Earth          Sun     anti-Sun      rot (x)      rot (y)      rot (z) 
# average speed (km/s)         24.49        24.49        17.79        25.37        23.67        23.86        24.48        24.96        24.96        23.95        24.25        24.45 
# total flux (#/m2/yr)  7.090327e-01 7.086299e-01 1.596899e-01 1.092993e+00 8.063898e-01 1.003225e-03 7.030719e-01 1.015136e+00 1.015391e+00 1.574118e+00 1.786028e+00 2.100812e+00 
# velocity (km/s)
     0.5                0.000000e+00 0.000000e+00 0.000000e+00 0.000000e+00 0.000000e+00 0.000000e+00 0.000000e+00 0.000000e+00 0.000000e+00 0.000000e+00 0.000000e+00 0.000000e+00 
     1.5                0.000000e+00 0.000000e+00 0.000000e+00 0.000000e+00 0.000000e+00 0.000000e+00 0.000000e+00 0.000000e+00 0.000000e+00 0.000000e+00 0.000000e+00 0.000000e+00 
     2.5                1.257433e-06 1.260760e-06 5.024667e-06 0.000000e+00 5.221668e-07 4.488231e-09 1.259722e-06 8.960819e-07 8.750312e-07 5.075344e-06 2.650987e-06 5.871685e-06 
     3.5                5.376412e-05 5.387679e-05 7.337470e-05 6.068243e-06 2.933037e-05 1.152815e-07 5.361237e-05 3.122770e-05 3.118400e-05 9.084404e-05 1.152188e-04 1.487497e-04 
     4.5                3.028281e-04 3.037175e-04 3.153075e-04 1.764714e-04 2.651991e-04 5.198466e-07 3.018655e-04 1.877520e-04 1.876180e-04 6.007683e-04 7.036235e-04 8.644784e-04 
     5.5                1.036390e-03 1.039125e-03 9.362429e-04 7.879128e-04 1.066277e-03 1.591802e-06 1.033286e-03 7.290926e-04 7.287530e-04 2.200722e-03 2.506707e-03 2.987657e-03 
     6.5                2.421007e-03 2.423422e-03 1.759717e-03 2.539373e-03 2.942336e-03 3.465584e-06 2.413449e-03 1.953383e-03 1.953280e-03 5.686949e-03 6.156142e-03 7.179846e-03 
     7.5                4.231058e-03 4.234656e-03 3.090843e-03 4.642791e-03 5.396656e-03 6.434705e-06 4.216777e-03 3.708859e-03 3.708977e-03 1.033205e-02 1.096464e-02 1.272798e-02 
     8.5                6.910734e-03 6.911013e-03 4.619882e-03 7.732849e-03 8.772225e-03 1.083273e-05 6.885879e-03 6.243157e-03 6.244558e-03 1.667305e-02 1.790704e-02 2.056248e-02 
     9.5                9.972782e-03 9.973803e-03 6.237509e-03 1.199417e-02 1.307546e-02 1.444193e-05 9.934367e-03 9.507591e-03 9.508650e-03 2.460124e-02 2.608255e-02 2.997480e-02 
    10.5                1.245408e-02 1.244867e-02 7.539406e-03 1.597733e-02 1.745522e-02 1.810639e-05 1.239781e-02 1.317733e-02 1.317934e-02 3.217503e-02 3.337229e-02 3.803836e-02 
    11.5                1.457619e-02 1.457383e-02 8.561177e-03 1.834029e-02 2.079335e-02 2.123503e-05 1.449456e-02 1.686944e-02 1.687037e-02 3.746276e-02 3.938276e-02 4.403368e-02 
    12.5                1.627908e-02 1.627544e-02 9.052522e-03 2.116859e-02 2.348850e-02 2.366093e-05 1.617560e-02 2.022420e-02 2.022930e-02 4.214332e-02 4.427689e-02 4.932748e-02 
    13.5                1.765469e-02 1.764740e-02 9.546765e-03 2.300406e-02 2.512421e-02 2.602076e-05 1.752940e-02 2.302135e-02 2.302473e-02 4.526150e-02 4.784563e-02 5.330378e-02 
    14.5                1.954127e-02 1.953492e-02 9.624048e-03 2.563183e-02 2.677215e-02 2.955536e-05 1.939181e-02 2.625846e-02 2.626241e-02 4.864345e-02 5.230236e-02 5.840306e-02 
    15.5                2.127229e-02 2.126672e-02 9.530789e-03 2.877347e-02 2.809290e-02 3.260311e-05 2.110215e-02 2.936285e-02 2.936881e-02 5.192864e-02 5.624962e-02 6.355307e-02 
    16.5                2.301464e-02 2.300427e-02 9.273838e-03 3.210365e-02 2.960282e-02 3.523434e-05 2.282284e-02 3.246910e-02 3.247472e-02 5.535466e-02 6.029556e-02 6.868372e-02 
    17.5                2.438378e-02 2.437606e-02 8.835797e-03 3.460026e-02 3.035797e-02 3.735761e-05 2.417388e-02 3.497977e-02 3.498765e-02 5.741689e-02 6.322360e-02 7.246279e-02 
    18.5                2.571148e-02 2.570181e-02 8.383021e-03 3.718333e-02 3.093113e-02 3.962220e-05 2.548364e-02 3.749819e-02 3.750574e-02 5.937202e-02 6.592296e-02 7.624448e-02 
    19.5                2.678287e-02 2.676950e-02 7.909856e-03 3.960689e-02 3.160799e-02 4.098706e-05 2.653960e-02 3.964852e-02 3.965802e-02 6.125125e-02 6.823863e-02 7.945108e-02 
    20.5                2.732094e-02 2.730778e-02 7.201927e-03 4.107363e-02 3.164653e-02 4.176657e-05 2.706892e-02 4.088158e-02 4.089159e-02 6.172664e-02 6.923667e-02 8.093127e-02 
    21.5                2.802683e-02 2.801556e-02 6.706381e-03 4.242102e-02 3.151798e-02 4.277812e-05 2.776623e-02 4.204944e-02 4.206070e-02 6.212676e-02 7.038168e-02 8.271912e-02 
    22.5                2.899944e-02 2.898592e-02 6.220423e-03 4.426855e-02 3.206983e-02 4.391323e-05 2.872768e-02 4.362565e-02 4.363675e-02 6.343079e-02 7.247412e-02 8.532931e-02 
    23.5                2.959504e-02 2.958134e-02 5.562788e-03 4.602439e-02 3.229171e-02 4.413846e-05 2.931652e-02 4.475734e-02 4.476851e-02 6.428135e-02 7.366171e-02 8.712682e-02 
    24.5                2.973791e-02 2.972275e-02 4.927282e-03 4.678578e-02 3.200842e-02 4.388865e-05 2.945732e-02 4.502860e-02 4.503992e-02 6.398962e-02 7.373694e-02 8.747242e-02 
    25.5                2.977834e-02 2.976265e-02 4.264139e-03 4.733587e-02 3.163395e-02 4.332154e-05 2.949871e-02 4.503313e-02 4.504508e-02 6.343277e-02 7.356654e-02 8.745969e-02 
    26.5                2.959376e-02 2.957695e-02 3.716253e-03 4.760027e-02 3.112685e-02 4.223480e-05 2.931699e-02 4.476098e-02 4.477236e-02 6.264111e-02 7.290889e-02 8.695028e-02 
    27.5                2.882634e-02 2.880858e-02 3.143409e-03 4.694931e-02 3.019768e-02 4.037576e-05 2.855829e-02 4.361613e-02 4.362984e-02 6.082810e-02 7.093891e-02 8.479360e-02 
    28.5                2.800156e-02 2.798421e-02 2.686183e-03 4.574762e-02 2.900294e-02 3.892276e-05 2.774312e-02 4.218680e-02 4.219735e-02 5.851609e-02 6.870601e-02 8.220122e-02 
    29.5                2.703383e-02 2.701633e-02 2.217937e-03 4.457940e-02 2.789607e-02 3.673111e-05 2.678676e-02 4.063881e-02 4.065040e-02 5.628837e-02 6.625290e-02 7.939231e-02 
    30.5                2.573528e-02 2.571801e-02 1.813404e-03 4.276297e-02 2.643648e-02 3.447562e-05 2.550277e-02 3.857834e-02 3.858878e-02 5.338870e-02 6.300232e-02 7.561485e-02 
    31.5                2.430919e-02 2.429072e-02 1.449892e-03 4.068626e-02 2.487315e-02 3.199831e-05 2.409179e-02 3.630134e-02 3.631214e-02 5.024293e-02 5.944276e-02 7.145802e-02 
    32.5                2.268391e-02 2.266702e-02 1.152692e-03 3.820857e-02 2.314080e-02 2.938206e-05 2.248392e-02 3.371467e-02 3.372504e-02 4.673914e-02 5.542336e-02 6.672307e-02 
    33.5                2.083592e-02 2.081738e-02 9.164964e-04 3.537648e-02 2.126977e-02 2.646858e-05 2.065515e-02 3.081999e-02 3.082849e-02 4.294538e-02 5.090600e-02 6.139183e-02 
    34.5                1.873085e-02 1.871494e-02 7.107120e-04 3.201898e-02 1.914419e-02 2.348812e-05 1.857162e-02 2.756300e-02 2.757063e-02 3.862610e-02 4.577600e-02 5.527481e-02 
    35.5                1.662137e-02 1.660509e-02 5.321303e-04 2.858778e-02 1.699664e-02 2.055385e-05 1.648238e-02 2.432410e-02 2.433288e-02 3.427059e-02 4.062103e-02 4.911086e-02 
    36.5                1.451278e-02 1.449871e-02 3.876149e-04 2.509548e-02 1.484182e-02 1.772997e-05 1.439411e-02 2.109631e-02 2.110126e-02 2.990542e-02 3.546598e-02 4.293285e-02 
    37.5                1.249324e-02 1.247975e-02 2.780971e-04 2.173017e-02 1.279672e-02 1.501909e-05 1.239326e-02 1.802810e-02 1.803418e-02 2.576185e-02 3.053708e-02 3.701249e-02 
    38.5                1.051709e-02 1.050425e-02 1.938923e-04 1.841451e-02 1.080482e-02 1.245545e-05 1.043474e-02 1.507495e-02 1.508025e-02 2.173454e-02 2.572301e-02 3.122174e-02 
    39.5                8.600448e-03 8.589531e-03 1.284502e-04 1.522802e-02 8.906135e-03 9.952273e-06 8.534974e-03 1.226165e-02 1.226597e-02 1.789969e-02 2.107365e-02 2.563455e-02 
    40.5                6.733074e-03 6.722788e-03 8.145268e-05 1.207604e-02 7.044902e-03 7.594769e-06 6.683265e-03 9.548318e-03 9.551425e-03 1.414600e-02 1.653865e-02 2.016906e-02 
    41.5                5.019117e-03 5.011421e-03 4.875937e-05 9.138221e-03 5.320416e-03 5.501863e-06 4.983177e-03 7.088809e-03 7.091227e-03 1.067370e-02 1.236892e-02 1.512754e-02 
    42.5                3.565285e-03 3.559369e-03 2.802594e-05 6.565859e-03 3.816876e-03 3.818685e-06 3.540526e-03 5.006925e-03 5.008593e-03 7.651160e-03 8.808177e-03 1.079717e-02 
    43.5                2.409282e-03 2.404429e-03 1.508644e-05 4.515729e-03 2.622226e-03 2.480191e-06 2.393071e-03 3.370824e-03 3.372466e-03 5.252145e-03 5.975848e-03 7.349714e-03 
    44.5                1.477592e-03 1.474287e-03 7.182251e-06 2.864504e-03 1.661851e-03 1.422538e-06 1.468108e-03 2.077480e-03 2.078439e-03 3.326112e-03 3.696601e-03 4.575324e-03 
    45.5                7.919797e-04 7.899819e-04 2.972587e-06 1.597650e-03 9.262994e-04 6.910675e-07 7.871836e-04 1.122618e-03 1.122984e-03 1.852673e-03 2.002235e-03 2.496873e-03 
    46.5                3.466036e-04 3.455729e-04 9.773308e-07 7.447306e-04 4.316309e-04 2.563324e-07 3.446803e-04 5.020936e-04 5.024164e-04 8.627581e-04 8.918339e-04 1.125542e-03 
    47.5                1.090108e-04 1.086698e-04 2.220642e-07 2.557491e-04 1.481817e-04 6.601553e-08 1.084753e-04 1.642570e-04 1.643401e-04 2.960519e-04 2.884257e-04 3.703683e-04 
    48.5                2.369433e-05 2.363092e-05 3.183257e-08 6.153144e-05 3.564562e-05 1.003434e-08 2.359627e-05 3.749141e-05 3.752194e-05 7.118527e-05 6.485076e-05 8.496126e-05 
    49.5                2.780567e-06 2.779252e-06 1.046970e-09 8.529300e-06 4.940559e-06 3.548348e-10 2.773150e-06 4.842784e-06 4.848647e-06 9.861801e-06 8.087202e-06 1.095052e-05 
    50.5                5.339357e-08 5.407127e-08 0.000000e+00 2.446301e-07 1.416554e-07 0.000000e+00 5.353088e-08 1.241007e-07 1.238965e-07 2.827544e-07 1.876451e-07 2.759585e-07 
    51.5                0.000000e+00 0.000000e+00 0.000000e+00 0.000000e+00 0.000000e+00 0.000000e+00 0.000000e+00 0.000000e+00 0.000000e+00 0.000000e+00 0.000000e+00 0.000000e+00 
    52.5                0.000000e+00 0.000000e+00 0.000000e+00 0.000000e+00 0.000000e+00 0.000000e+00 0.000000e+00 0.000000e+00 0.000000e+00 0.000000e+00 0.000000e+00 0.000000e+00 
    53.5                0.000000e+00 0.000000e+00 0.000000e+00 0.000000e+00 0.000000e+00 0.000000e+00 0.000000e+00 0.000000e+00 0.000000e+00 0.000000e+00 0.000000e+00 0.000000e+00 
    54.5                0.000000e+00 0.000000e+00 0.000000e+00 0.000000e+00 0.000000e+00 0.000000e+00 0.000000e+00 0.000000e+00 0.000000e+00 0.000000e+00 0.000000e+00 0.000000e+00 
    55.5                0.000000e+00 0.000000e+00 0.000000e+00 0.000000e+00 0.000000e+00 0.000000e+00 0.000000e+00 0.000000e+00 0.000000e+00 0.000000e+00 0.000000e+00 0.000000e+00 
    56.5                0.000000e+00 0.000000e+00 0.000000e+00 0.000000e+00 0.000000e+00 0.000000e+00 0.000000e+00 0.000000e+00 0.000000e+00 0.000000e+00 0.000000e+00 0.000000e+00 
    57.5                0.000000e+00 0.000000e+00 0.000000e+00 0.000000e+00 0.000000e+00 0.000000e+00 0.000000e+00 0.000000e+00 0.000000e+00 0.000000e+00 0.000000e+00 0.000000e+00 
    58.5                0.000000e+00 0.000000e+00 0.000000e+00 0.000000e+00 0.000000e+00 0.000000e+00 0.000000e+00 0.000000e+00 0.000000e+00 0.000000e+00 0.000000e+00 0.000000e+00 
    59.5                0.000000e+00 0.000000e+00 0.000000e+00 0.000000e+00 0.000000e+00 0.000000e+00 0.000000e+00 0.000000e+00 0.000000e+00 0.000000e+00 0.000000e+00 0.000000e+00 
    60.5                0.000000e+00 0.000000e+00 0.000000e+00 0.000000e+00 0.000000e+00 0.000000e+00 0.000000e+00 0.000000e+00 0.000000e+00 0.000000e+00 0.000000e+00 0.000000e+00 
    61.5                0.000000e+00 0.000000e+00 0.000000e+00 0.000000e+00 0.000000e+00 0.000000e+00 0.000000e+00 0.000000e+00 0.000000e+00 0.000000e+00 0.000000e+00 0.000000e+00 
    62.5                0.000000e+00 0.000000e+00 0.000000e+00 0.000000e+00 0.000000e+00 0.000000e+00 0.000000e+00 0.000000e+00 0.000000e+00 0.000000e+00 0.000000e+00 0.000000e+00 
    63.5                0.000000e+00 0.000000e+00 0.000000e+00 0.000000e+00 0.000000e+00 0.000000e+00 0.000000e+00 0.000000e+00 0.000000e+00 0.000000e+00 0.000000e+00 0.000000e+00 
    64.5                0.000000e+00 0.000000e+00 0.000000e+00 0.000000e+00 0.000000e+00 0.000000e+00 0.000000e+00 0.000000e+00 0.000000e+00 0.000000e+00 0.000000e+00 0.000000e+00 
    65.5                0.000000e+00 0.000000e+00 0.000000e+00 0.000000e+00 0.000000e+00 0.000000e+00 0.000000e+00 0.000000e+00 0.000000e+00 0.000000e+00 0.000000e+00 0.000000e+00 
    66.5                0.000000e+00 0.000000e+00 0.000000e+00 0.000000e+00 0.000000e+00 0.000000e+00 0.000000e+00 0.000000e+00 0.000000e+00 0.000000e+00 0.000000e+00 0.000000e+00 
    67.5                0.000000e+00 0.000000e+00 0.000000e+00 0.000000e+00 0.000000e+00 0.000000e+00 0.000000e+00 0.000000e+00 0.000000e+00 0.000000e+00 0.000000e+00 0.000000e+00 
    68.5                0.000000e+00 0.000000e+00 0.000000e+00 0.000000e+00 0.000000e+00 0.000000e+00 0.000000e+00 0.000000e+00 0.000000e+00 0.000000e+00 0.000000e+00 0.000000e+00 
    69.5                0.000000e+00 0.000000e+00 0.000000e+00 0.000000e+00 0.000000e+00 0.000000e+00 0.000000e+00 0.000000e+00 0.000000e+00 0.000000e+00 0.000000e+00 0.000000e+00 
    70.5                0.000000e+00 0.000000e+00 0.000000e+00 0.000000e+00 0.000000e+00 0.000000e+00 0.000000e+00 0.000000e+00 0.000000e+00 0.000000e+00 0.000000e+00 0.000000e+00 
    71.5                0.000000e+00 0.000000e+00 0.000000e+00 0.000000e+00 0.000000e+00 0.000000e+00 0.000000e+00 0.000000e+00 0.000000e+00 0.000000e+00 0.000000e+00 0.000000e+00 
    72.5                0.000000e+00 0.000000e+00 0.000000e+00 0.000000e+00 0.000000e+00 0.000000e+00 0.000000e+00 0.000000e+00 0.000000e+00 0.000000e+00 0.000000e+00 0.000000e+00 
    73.5                0.000000e+00 0.000000e+00 0.000000e+00 0.000000e+00 0.000000e+00 0.000000e+00 0.000000e+00 0.000000e+00 0.000000e+00 0.000000e+00 0.000000e+00 0.000000e+00 
    74.5                0.000000e+00 0.000000e+00 0.000000e+00 0.000000e+00 0.000000e+00 0.000000e+00 0.000000e+00 0.000000e+00 0.000000e+00 0.000000e+00 0.000000e+00 0.000000e+00 
    75.5                0.000000e+00 0.000000e+00 0.000000e+00 0.000000e+00 0.000000e+00 0.000000e+00 0.000000e+00 0.000000e+00 0.000000e+00 0.000000e+00 0.000000e+00 0.000000e+00 
    76.5                0.000000e+00 0.000000e+00 0.000000e+00 0.000000e+00 0.000000e+00 0.000000e+00 0.000000e+00 0.000000e+00 0.000000e+00 0.000000e+00 0.000000e+00 0.000000e+00 
    77.5                0.000000e+00 0.000000e+00 0.000000e+00 0.000000e+00 0.000000e+00 0.000000e+00 0.000000e+00 0.000000e+00 0.000000e+00 0.000000e+00 0.000000e+00 0.000000e+00 
    78.5                0.000000e+00 0.000000e+00 0.000000e+00 0.000000e+00 0.000000e+00 0.000000e+00 0.000000e+00 0.000000e+00 0.000000e+00 0.000000e+00 0.000000e+00 0.000000e+00 
    79.5                0.000000e+00 0.000000e+00 0.000000e+00 0.000000e+00 0.000000e+00 0.000000e+00 0.000000e+00 0.000000e+00 0.000000e+00 0.000000e+00 0.000000e+00 0.000000e+00 


