# 80 rows of flux data
# 12 columns of flux data
# 
# total cross-sectional flux  1.024972e+00 /m^2/yr
#
#                             +x ram      -x wake      +y port -y starboard    +z zenith     -z nadir        Earth          Sun     anti-Sun      rot (x)      rot (y)      rot (z) 
# average speed (km/s)         36.79        38.07        37.42        37.41        31.65        17.12        37.48        27.82        27.82        33.74        33.73        37.39 
# total flux (#/m2/yr)  2.523986e-01 2.123234e-01 2.315354e-01 2.315536e-01 6.341236e-01 5.594931e-05 2.307790e-01 1.664387e-01 1.664545e-01 8.495542e-01 8.507286e-01 7.287007e-01 
# velocity (km/s)
     0.5                0.000000e+00 0.000000e+00 0.000000e+00 0.000000e+00 0.000000e+00 0.000000e+00 0.000000e+00 0.000000e+00 0.000000e+00 0.000000e+00 0.000000e+00 0.000000e+00 
     1.5                0.000000e+00 0.000000e+00 0.000000e+00 0.000000e+00 0.000000e+00 0.000000e+00 0.000000e+00 0.000000e+00 0.000000e+00 0.000000e+00 0.000000e+00 0.000000e+00 
     2.5                3.332676e-05 1.189862e-04 8.970350e-05 8.926471e-05 1.553840e-04 5.372520e-08 8.925040e-05 8.409041e-05 8.420984e-05 2.612906e-04 2.417827e-04 2.605121e-04 
     3.5                3.687950e-04 4.722050e-04 4.478174e-04 4.477821e-04 7.496220e-04 4.191284e-07 4.458137e-04 4.412836e-04 4.410535e-04 1.285915e-03 1.250143e-03 1.363415e-03 
     4.5                9.571000e-04 8.457369e-04 9.233783e-04 9.242338e-04 1.635103e-03 1.106529e-06 9.183461e-04 9.748045e-04 9.747133e-04 2.727368e-03 2.703587e-03 2.866913e-03 
     5.5                1.610995e-03 1.259967e-03 1.435801e-03 1.436501e-03 2.747528e-03 1.758574e-06 1.426203e-03 1.606519e-03 1.606502e-03 4.401453e-03 4.413251e-03 4.510425e-03 
     6.5                2.270180e-03 1.623040e-03 1.934932e-03 1.936554e-03 4.126705e-03 2.100032e-06 1.922051e-03 2.236938e-03 2.237191e-03 6.275369e-03 6.300471e-03 6.097884e-03 
     7.5                2.826758e-03 1.980920e-03 2.380733e-03 2.384147e-03 5.614083e-03 2.407270e-06 2.364387e-03 2.812792e-03 2.812916e-03 8.147980e-03 8.195041e-03 7.518241e-03 
     8.5                3.330482e-03 2.325819e-03 2.787152e-03 2.789810e-03 7.080441e-03 2.774290e-06 2.767023e-03 3.351497e-03 3.351885e-03 9.958031e-03 1.002209e-02 8.822879e-03 
     9.5                3.748982e-03 2.570414e-03 3.131786e-03 3.135587e-03 8.502682e-03 2.877059e-06 3.109579e-03 3.822902e-03 3.823182e-03 1.163602e-02 1.168103e-02 9.885829e-03 
    10.5                4.069718e-03 2.871974e-03 3.422138e-03 3.426371e-03 9.913331e-03 2.844316e-06 3.396821e-03 4.263983e-03 4.264477e-03 1.321799e-02 1.329717e-02 1.083035e-02 
    11.5                4.428066e-03 3.103543e-03 3.727726e-03 3.732948e-03 1.157021e-02 2.903412e-06 3.700307e-03 4.721758e-03 4.722007e-03 1.506058e-02 1.510902e-02 1.177491e-02 
    12.5                4.704464e-03 3.278846e-03 3.951978e-03 3.956905e-03 1.283245e-02 3.003283e-06 3.922383e-03 5.048181e-03 5.048397e-03 1.642196e-02 1.648435e-02 1.248248e-02 
    13.5                4.870547e-03 3.308314e-03 4.030309e-03 4.035439e-03 1.393780e-02 2.910013e-06 4.000760e-03 5.178826e-03 5.179248e-03 1.750701e-02 1.757926e-02 1.275822e-02 
    14.5                4.772792e-03 3.430800e-03 4.053911e-03 4.057787e-03 1.455960e-02 2.753835e-06 4.023919e-03 5.229736e-03 5.230145e-03 1.807431e-02 1.813634e-02 1.281353e-02 
    15.5                4.922307e-03 3.492981e-03 4.166629e-03 4.171253e-03 1.574117e-02 2.541526e-06 4.137164e-03 5.340621e-03 5.341223e-03 1.923248e-02 1.928557e-02 1.315770e-02 
    16.5                4.879108e-03 3.546140e-03 4.162747e-03 4.166321e-03 1.605758e-02 2.428394e-06 4.132369e-03 5.358065e-03 5.358339e-03 1.949462e-02 1.955106e-02 1.315915e-02 
    17.5                4.896873e-03 3.558535e-03 4.188338e-03 4.191224e-03 1.652910e-02 2.368175e-06 4.158622e-03 5.326816e-03 5.327322e-03 1.992136e-02 1.996662e-02 1.322176e-02 
    18.5                4.869291e-03 3.617491e-03 4.203893e-03 4.207816e-03 1.703261e-02 2.276602e-06 4.174247e-03 5.288603e-03 5.289022e-03 2.035676e-02 2.040814e-02 1.327172e-02 
    19.5                4.825816e-03 3.601714e-03 4.203350e-03 4.206251e-03 1.716659e-02 2.134145e-06 4.174686e-03 5.175377e-03 5.175796e-03 2.042812e-02 2.043765e-02 1.322473e-02 
    20.5                4.751191e-03 3.541514e-03 4.100819e-03 4.103424e-03 1.697680e-02 1.934650e-06 4.072196e-03 4.986974e-03 4.987661e-03 2.008736e-02 2.014815e-02 1.295550e-02 
    21.5                4.600659e-03 3.587118e-03 4.069163e-03 4.070680e-03 1.710882e-02 1.668201e-06 4.041368e-03 4.841202e-03 4.841641e-03 2.013485e-02 2.016297e-02 1.282463e-02 
    22.5                4.658497e-03 3.517025e-03 4.083604e-03 4.086991e-03 1.739147e-02 1.510235e-06 4.058777e-03 4.717114e-03 4.717366e-03 2.035945e-02 2.037244e-02 1.283855e-02 
    23.5                4.442514e-03 3.372610e-03 3.865746e-03 3.866232e-03 1.647257e-02 1.401154e-06 3.839610e-03 4.418077e-03 4.418885e-03 1.925655e-02 1.930372e-02 1.221184e-02 
    24.5                4.190222e-03 3.290544e-03 3.719838e-03 3.722044e-03 1.579706e-02 1.276622e-06 3.695735e-03 4.153772e-03 4.154067e-03 1.844341e-02 1.846899e-02 1.171940e-02 
    25.5                4.094246e-03 3.205548e-03 3.620566e-03 3.621839e-03 1.543943e-02 1.166051e-06 3.597075e-03 3.926875e-03 3.927395e-03 1.797868e-02 1.801011e-02 1.142050e-02 
    26.5                3.922791e-03 3.175656e-03 3.540352e-03 3.541213e-03 1.487684e-02 1.047538e-06 3.517492e-03 3.718677e-03 3.718898e-03 1.734476e-02 1.735392e-02 1.113726e-02 
    27.5                3.856927e-03 3.045803e-03 3.440522e-03 3.441452e-03 1.429358e-02 8.535414e-07 3.419146e-03 3.509044e-03 3.509289e-03 1.665591e-02 1.667136e-02 1.082715e-02 
    28.5                3.676291e-03 2.977586e-03 3.307852e-03 3.308244e-03 1.367871e-02 6.740427e-07 3.287972e-03 3.245312e-03 3.246001e-03 1.591666e-02 1.594299e-02 1.042243e-02 
    29.5                3.536028e-03 2.764034e-03 3.138050e-03 3.139606e-03 1.295180e-02 5.886414e-07 3.120481e-03 2.941745e-03 2.942052e-03 1.505209e-02 1.506786e-02 9.876766e-03 
    30.5                3.276391e-03 2.690694e-03 2.960629e-03 2.960808e-03 1.235071e-02 5.077070e-07 2.943272e-03 2.724709e-03 2.724902e-03 1.429892e-02 1.432260e-02 9.337503e-03 
    31.5                3.168002e-03 2.681163e-03 2.918982e-03 2.919433e-03 1.197406e-02 4.171204e-07 2.903007e-03 2.559762e-03 2.560185e-03 1.387027e-02 1.388526e-02 9.179670e-03 
    32.5                3.080686e-03 2.574727e-03 2.811547e-03 2.810411e-03 1.124610e-02 3.515726e-07 2.796587e-03 2.349203e-03 2.349335e-03 1.308455e-02 1.309925e-02 8.857546e-03 
    33.5                2.990988e-03 2.631418e-03 2.798808e-03 2.798687e-03 1.086785e-02 2.998910e-07 2.785363e-03 2.170554e-03 2.171030e-03 1.270859e-02 1.272059e-02 8.811043e-03 
    34.5                3.044517e-03 2.633539e-03 2.838442e-03 2.840137e-03 1.094537e-02 2.304816e-07 2.825955e-03 2.083934e-03 2.084118e-03 1.279062e-02 1.279883e-02 8.916911e-03 
    35.5                2.930154e-03 2.539510e-03 2.724562e-03 2.722496e-03 1.007938e-02 1.737581e-07 2.712127e-03 1.945912e-03 1.946068e-03 1.188380e-02 1.189567e-02 8.573507e-03 
    36.5                2.836826e-03 2.592496e-03 2.721747e-03 2.720722e-03 9.832534e-03 1.253435e-07 2.710822e-03 1.816797e-03 1.817123e-03 1.165105e-02 1.164292e-02 8.539522e-03 
    37.5                2.956175e-03 2.667795e-03 2.790856e-03 2.788107e-03 9.935851e-03 8.586984e-08 2.779622e-03 1.759310e-03 1.759508e-03 1.180870e-02 1.184153e-02 8.801238e-03 
    38.5                2.873326e-03 2.861728e-03 2.862040e-03 2.858789e-03 9.707984e-03 5.444611e-08 2.851529e-03 1.687903e-03 1.688293e-03 1.169281e-02 1.169446e-02 8.995230e-03 
    39.5                3.097527e-03 2.758616e-03 2.949091e-03 2.947071e-03 9.627696e-03 3.534509e-08 2.941610e-03 1.637269e-03 1.637366e-03 1.171894e-02 1.169403e-02 9.226760e-03 
    40.5                3.043355e-03 2.842451e-03 2.926188e-03 2.924737e-03 9.443186e-03 2.177104e-08 2.916259e-03 1.569522e-03 1.569723e-03 1.152226e-02 1.155387e-02 9.221154e-03 
    41.5                3.079406e-03 3.136972e-03 3.105023e-03 3.102976e-03 9.472769e-03 1.120462e-08 3.096656e-03 1.550601e-03 1.550979e-03 1.177302e-02 1.177735e-02 9.756860e-03 
    42.5                3.350651e-03 3.047380e-03 3.222125e-03 3.224509e-03 9.224582e-03 2.887166e-09 3.215962e-03 1.543231e-03 1.543385e-03 1.172455e-02 1.169312e-02 1.008940e-02 
    43.5                3.257237e-03 3.220448e-03 3.194538e-03 3.188308e-03 8.788224e-03 1.379910e-10 3.184134e-03 1.495992e-03 1.496051e-03 1.133439e-02 1.139168e-02 1.010027e-02 
    44.5                3.413590e-03 3.543441e-03 3.494307e-03 3.495360e-03 9.153680e-03 5.922268e-11 3.488399e-03 1.543255e-03 1.543418e-03 1.202452e-02 1.199724e-02 1.095607e-02 
    45.5                3.760938e-03 3.524068e-03 3.619054e-03 3.616821e-03 9.189913e-03 7.148091e-11 3.613422e-03 1.546181e-03 1.546540e-03 1.220590e-02 1.224569e-02 1.140302e-02 
    46.5                3.684259e-03 3.620322e-03 3.652742e-03 3.654009e-03 8.939049e-03 6.425163e-08 3.646664e-03 1.511691e-03 1.511747e-03 1.206627e-02 1.207389e-02 1.147597e-02 
    47.5                3.826766e-03 3.860506e-03 3.819826e-03 3.814542e-03 8.866738e-03 1.416504e-07 3.813044e-03 1.533818e-03 1.533767e-03 1.227086e-02 1.231112e-02 1.203399e-02 
    48.5                3.928365e-03 4.233683e-03 4.094213e-03 4.092148e-03 8.826537e-03 2.072816e-07 4.087212e-03 1.581785e-03 1.582099e-03 1.266176e-02 1.263033e-02 1.284113e-02 
    49.5                4.346753e-03 4.639857e-03 4.443266e-03 4.441024e-03 9.115315e-03 1.101588e-07 4.437419e-03 1.640527e-03 1.640525e-03 1.338661e-02 1.346365e-02 1.403175e-02 
    50.5                4.626998e-03 5.319258e-03 4.952361e-03 4.947149e-03 9.445935e-03 3.302609e-08 4.946821e-03 1.723412e-03 1.723521e-03 1.439447e-02 1.444222e-02 1.558563e-02 
    51.5                5.286358e-03 5.865977e-03 5.631885e-03 5.629372e-03 9.746685e-03 4.145841e-08 5.631496e-03 1.807676e-03 1.808054e-03 1.569618e-02 1.560944e-02 1.760673e-02 
    52.5                5.952282e-03 5.870295e-03 5.947232e-03 5.946350e-03 9.544657e-03 8.211170e-08 5.947925e-03 1.855369e-03 1.855321e-03 1.608437e-02 1.602370e-02 1.862527e-02 
    53.5                6.066103e-03 5.953713e-03 6.027670e-03 6.027083e-03 9.109581e-03 8.940129e-08 6.030168e-03 1.871714e-03 1.872134e-03 1.593623e-02 1.590557e-02 1.890750e-02 
    54.5                6.175948e-03 5.612194e-03 5.956651e-03 5.952109e-03 8.615722e-03 5.445632e-08 5.960277e-03 1.852777e-03 1.852882e-03 1.548541e-02 1.538349e-02 1.861797e-02 
    55.5                6.101206e-03 5.660023e-03 5.825931e-03 5.821044e-03 8.216313e-03 5.957393e-08 5.826893e-03 1.825639e-03 1.825701e-03 1.500752e-02 1.509225e-02 1.837973e-02 
    56.5                5.974775e-03 5.398086e-03 5.715467e-03 5.715683e-03 7.804234e-03 4.636663e-08 5.721211e-03 1.783313e-03 1.783518e-03 1.455027e-02 1.450996e-02 1.790761e-02 
    57.5                5.745898e-03 4.928121e-03 5.329767e-03 5.327360e-03 7.076724e-03 1.957375e-08 5.333537e-03 1.693101e-03 1.693257e-03 1.343888e-02 1.345458e-02 1.675968e-02 
    58.5                5.285976e-03 4.728442e-03 4.996928e-03 4.996811e-03 6.395666e-03 2.730522e-08 5.000708e-03 1.566874e-03 1.566967e-03 1.244518e-02 1.245803e-02 1.571371e-02 
    59.5                5.000494e-03 4.510941e-03 4.768138e-03 4.768623e-03 5.892815e-03 7.120927e-08 4.773286e-03 1.439345e-03 1.439515e-03 1.173085e-02 1.171868e-02 1.495677e-02 
    60.5                4.827645e-03 4.103686e-03 4.463452e-03 4.458082e-03 5.326921e-03 1.302796e-07 4.468670e-03 1.286763e-03 1.286928e-03 1.086468e-02 1.087118e-02 1.402137e-02 
    61.5                4.374348e-03 3.579883e-03 4.034520e-03 4.033748e-03 4.555780e-03 1.155604e-07 4.040778e-03 1.126833e-03 1.126979e-03 9.667349e-03 9.575271e-03 1.258930e-02 
    62.5                4.029741e-03 2.931350e-03 3.449454e-03 3.452580e-03 3.770850e-03 9.764840e-08 3.454499e-03 9.616296e-04 9.615299e-04 8.202727e-03 8.242079e-03 1.088598e-02 
    63.5                3.291716e-03 2.391733e-03 2.825103e-03 2.822652e-03 2.974487e-03 7.516869e-08 2.829913e-03 7.908604e-04 7.910911e-04 6.641574e-03 6.676390e-03 8.898949e-03 
    64.5                2.711912e-03 1.914662e-03 2.291450e-03 2.291682e-03 2.352104e-03 6.782375e-08 2.295070e-03 6.269515e-04 6.269827e-04 5.355109e-03 5.390599e-03 7.234246e-03 
    65.5                2.154184e-03 1.462754e-03 1.807270e-03 1.808464e-03 1.771404e-03 5.970426e-08 1.811114e-03 4.732600e-04 4.733130e-04 4.177867e-03 4.177992e-03 5.681750e-03 
    66.5                1.725729e-03 1.041734e-03 1.372775e-03 1.373345e-03 1.286293e-03 4.705009e-08 1.376188e-03 3.392610e-04 3.392873e-04 3.142389e-03 3.158945e-03 4.330135e-03 
    67.5                1.265109e-03 6.686341e-04 9.504194e-04 9.499066e-04 8.443325e-04 4.419494e-08 9.527595e-04 2.208425e-04 2.208961e-04 2.151410e-03 2.179209e-03 3.011744e-03 
    68.5                8.503368e-04 3.768663e-04 6.004356e-04 6.004557e-04 4.958766e-04 3.338645e-08 6.020281e-04 1.271133e-04 1.271215e-04 1.341556e-03 1.362923e-03 1.907513e-03 
    69.5                5.186042e-04 1.680686e-04 3.281272e-04 3.284317e-04 2.493690e-04 3.115430e-08 3.292073e-04 6.192902e-05 6.193959e-05 7.243057e-04 7.490916e-04 1.054553e-03 
    70.5                2.596182e-04 4.452449e-05 1.391716e-04 1.392138e-04 9.487241e-05 3.846090e-08 1.394602e-04 2.356847e-05 2.356551e-05 3.032480e-04 3.250945e-04 4.576364e-04 
    71.5                9.405836e-05 6.572191e-06 3.829685e-05 3.846903e-05 2.361939e-05 3.880466e-08 3.818934e-05 6.044537e-06 6.042740e-06 8.310210e-05 1.045829e-04 1.393083e-04 
    72.5                1.711910e-05 2.127519e-07 5.702622e-06 5.658812e-06 2.676176e-06 1.942874e-08 5.631705e-06 8.864602e-07 8.874473e-07 1.207413e-05 1.762902e-05 2.264107e-05 
    73.5                1.527768e-06 1.455170e-13 3.445904e-07 3.281814e-07 8.731013e-08 4.174453e-09 3.269992e-07 4.299645e-08 4.297574e-08 6.924578e-07 1.532217e-06 1.744873e-06 
    74.5                0.000000e+00 0.000000e+00 0.000000e+00 0.000000e+00 0.000000e+00 0.000000e+00 0.000000e+00 0.000000e+00 0.000000e+00 0.000000e+00 0.000000e+00 0.000000e+00 
    75.5                0.000000e+00 0.000000e+00 0.000000e+00 0.000000e+00 0.000000e+00 0.000000e+00 0.000000e+00 0.000000e+00 0.000000e+00 0.000000e+00 0.000000e+00 0.000000e+00 
    76.5                0.000000e+00 0.000000e+00 0.000000e+00 0.000000e+00 0.000000e+00 0.000000e+00 0.000000e+00 0.000000e+00 0.000000e+00 0.000000e+00 0.000000e+00 0.000000e+00 
    77.5                0.000000e+00 0.000000e+00 0.000000e+00 0.000000e+00 0.000000e+00 0.000000e+00 0.000000e+00 0.000000e+00 0.000000e+00 0.000000e+00 0.000000e+00 0.000000e+00 
    78.5                0.000000e+00 0.000000e+00 0.000000e+00 0.000000e+00 0.000000e+00 0.000000e+00 0.000000e+00 0.000000e+00 0.000000e+00 0.000000e+00 0.000000e+00 0.000000e+00 
    79.5                0.000000e+00 0.000000e+00 0.000000e+00 0.000000e+00 0.000000e+00 0.000000e+00 0.000000e+00 0.000000e+00 0.000000e+00 0.000000e+00 0.000000e+00 0.000000e+00 


