# 80 rows of flux data
# 12 columns of flux data
# 
# total cross-sectional flux  1.024965e+00 /m^2/yr
#
#                             +x ram      -x wake      +y port -y starboard    +z zenith     -z nadir        Earth          Sun     anti-Sun      rot (x)      rot (y)      rot (z) 
# average speed (km/s)         38.07        36.79        37.42        37.41        31.65        17.11        37.47        27.82        27.82        33.74        33.73        37.39 
# total flux (#/m2/yr)  2.123283e-01 2.524116e-01 2.315138e-01 2.316009e-01 6.340715e-01 5.596297e-05 2.307014e-01 1.664337e-01 1.664513e-01 8.495324e-01 8.507003e-01 7.287355e-01 
# velocity (km/s)
     0.5                0.000000e+00 0.000000e+00 0.000000e+00 0.000000e+00 0.000000e+00 0.000000e+00 0.000000e+00 0.000000e+00 0.000000e+00 0.000000e+00 0.000000e+00 0.000000e+00 
     1.5                0.000000e+00 0.000000e+00 0.000000e+00 0.000000e+00 0.000000e+00 0.000000e+00 0.000000e+00 0.000000e+00 0.000000e+00 0.000000e+00 0.000000e+00 0.000000e+00 
     2.5                1.191246e-04 3.342138e-05 8.979840e-05 8.935519e-05 1.554345e-04 5.424473e-08 8.961703e-05 8.420278e-05 8.433527e-05 2.615056e-04 2.420323e-04 2.608468e-04 
     3.5                4.720696e-04 3.687538e-04 4.480958e-04 4.474671e-04 7.494670e-04 4.209640e-07 4.470136e-04 4.411184e-04 4.411518e-04 1.285768e-03 1.249886e-03 1.363229e-03 
     4.5                8.456285e-04 9.573205e-04 9.238564e-04 9.236941e-04 1.635151e-03 1.109677e-06 9.210148e-04 9.747854e-04 9.748417e-04 2.727415e-03 2.703760e-03 2.866980e-03 
     5.5                1.260050e-03 1.610892e-03 1.435012e-03 1.437116e-03 2.747619e-03 1.758661e-06 1.429797e-03 1.606361e-03 1.606499e-03 4.401437e-03 4.413288e-03 4.510234e-03 
     6.5                1.623006e-03 2.269999e-03 1.934298e-03 1.936933e-03 4.126436e-03 2.102367e-06 1.925939e-03 2.236823e-03 2.237120e-03 6.274998e-03 6.300151e-03 6.097576e-03 
     7.5                1.981006e-03 2.826651e-03 2.380880e-03 2.384315e-03 5.613772e-03 2.409607e-06 2.369012e-03 2.812821e-03 2.812782e-03 8.148018e-03 8.194746e-03 7.518423e-03 
     8.5                2.325669e-03 3.330782e-03 2.786375e-03 2.790546e-03 7.080209e-03 2.772956e-06 2.771602e-03 3.351335e-03 3.351628e-03 9.957825e-03 1.002204e-02 8.823019e-03 
     9.5                2.570514e-03 3.748775e-03 3.130974e-03 3.136130e-03 8.502036e-03 2.878904e-06 3.113601e-03 3.822688e-03 3.822967e-03 1.163528e-02 1.168044e-02 9.885466e-03 
    10.5                2.871856e-03 4.069386e-03 3.421798e-03 3.426541e-03 9.912525e-03 2.846702e-06 3.400790e-03 4.263805e-03 4.264260e-03 1.321724e-02 1.329620e-02 1.082992e-02 
    11.5                3.103606e-03 4.427783e-03 3.727274e-03 3.733290e-03 1.156967e-02 2.906479e-06 3.703984e-03 4.721647e-03 4.721813e-03 1.506004e-02 1.510843e-02 1.177458e-02 
    12.5                3.278948e-03 4.704693e-03 3.951721e-03 3.957267e-03 1.283249e-02 3.001425e-06 3.925662e-03 5.047847e-03 5.048302e-03 1.642213e-02 1.648460e-02 1.248283e-02 
    13.5                3.308496e-03 4.871077e-03 4.029620e-03 4.036807e-03 1.393713e-02 2.913622e-06 4.003547e-03 5.178646e-03 5.179144e-03 1.750673e-02 1.757902e-02 1.275936e-02 
    14.5                3.430573e-03 4.772429e-03 4.052647e-03 4.059325e-03 1.455821e-02 2.753530e-06 4.025909e-03 5.229444e-03 5.229768e-03 1.807314e-02 1.813486e-02 1.281322e-02 
    15.5                3.493205e-03 4.922701e-03 4.166506e-03 4.171447e-03 1.574142e-02 2.538823e-06 4.138066e-03 5.340485e-03 5.341160e-03 1.923277e-02 1.928607e-02 1.315827e-02 
    16.5                3.545990e-03 4.878879e-03 4.161760e-03 4.167946e-03 1.605580e-02 2.428221e-06 4.133350e-03 5.357639e-03 5.358210e-03 1.949326e-02 1.954928e-02 1.315933e-02 
    17.5                3.558621e-03 4.897651e-03 4.187513e-03 4.192545e-03 1.652911e-02 2.370688e-06 4.158754e-03 5.326792e-03 5.327355e-03 1.992165e-02 1.996699e-02 1.322284e-02 
    18.5                3.617751e-03 4.869282e-03 4.203247e-03 4.208895e-03 1.703309e-02 2.276177e-06 4.174447e-03 5.288491e-03 5.288802e-03 2.035745e-02 2.040868e-02 1.327227e-02 
    19.5                3.601391e-03 4.825609e-03 4.202596e-03 4.206875e-03 1.716304e-02 2.134065e-06 4.173703e-03 5.174841e-03 5.175729e-03 2.042470e-02 2.043415e-02 1.322425e-02 
    20.5                3.541886e-03 4.751445e-03 4.099942e-03 4.105135e-03 1.697649e-02 1.934985e-06 4.070994e-03 4.986927e-03 4.987293e-03 2.008739e-02 2.014811e-02 1.295660e-02 
    21.5                3.586950e-03 4.600615e-03 4.067484e-03 4.072616e-03 1.710735e-02 1.667012e-06 4.039610e-03 4.840992e-03 4.841352e-03 2.013360e-02 2.016144e-02 1.282458e-02 
    22.5                3.517324e-03 4.659172e-03 4.084821e-03 4.086972e-03 1.739193e-02 1.510977e-06 4.056724e-03 4.717026e-03 4.717614e-03 2.036048e-02 2.037337e-02 1.284031e-02 
    23.5                3.372562e-03 4.443230e-03 3.863627e-03 3.868615e-03 1.647240e-02 1.401334e-06 3.837401e-03 4.417949e-03 4.418636e-03 1.925662e-02 1.930393e-02 1.221253e-02 
    24.5                3.290677e-03 4.189610e-03 3.719056e-03 3.722901e-03 1.579446e-02 1.276067e-06 3.693729e-03 4.153521e-03 4.153744e-03 1.844099e-02 1.846634e-02 1.171915e-02 
    25.5                3.206214e-03 4.095194e-03 3.620173e-03 3.623668e-03 1.544101e-02 1.165756e-06 3.594932e-03 3.927089e-03 3.927546e-03 1.798079e-02 1.801225e-02 1.142282e-02 
    26.5                3.175098e-03 3.922749e-03 3.539162e-03 3.542212e-03 1.487464e-02 1.047140e-06 3.515021e-03 3.718138e-03 3.718705e-03 1.734261e-02 1.735166e-02 1.113671e-02 
    27.5                3.046122e-03 3.857295e-03 3.440063e-03 3.443418e-03 1.429391e-02 8.529199e-07 3.416269e-03 3.509069e-03 3.509228e-03 1.665681e-02 1.667191e-02 1.082881e-02 
    28.5                2.977727e-03 3.676532e-03 3.307825e-03 3.308744e-03 1.367811e-02 6.736623e-07 3.284899e-03 3.245351e-03 3.245823e-03 1.591632e-02 1.594273e-02 1.042321e-02 
    29.5                2.764203e-03 3.536576e-03 3.137853e-03 3.140167e-03 1.295062e-02 5.894626e-07 3.117042e-03 2.941558e-03 2.942030e-03 1.505127e-02 1.506710e-02 9.877570e-03 
    30.5                2.690881e-03 3.276371e-03 2.959499e-03 2.962017e-03 1.234974e-02 5.074834e-07 2.940303e-03 2.724528e-03 2.724612e-03 1.429808e-02 1.432177e-02 9.337686e-03 
    31.5                2.681250e-03 3.168096e-03 2.918676e-03 2.920543e-03 1.197340e-02 4.166957e-07 2.900222e-03 2.559787e-03 2.560191e-03 1.387009e-02 1.388487e-02 9.180580e-03 
    32.5                2.574323e-03 3.080939e-03 2.810597e-03 2.812288e-03 1.124567e-02 3.506002e-07 2.793372e-03 2.349097e-03 2.349425e-03 1.308450e-02 1.309863e-02 8.857901e-03 
    33.5                2.631899e-03 2.990347e-03 2.798559e-03 2.799025e-03 1.086670e-02 2.997552e-07 2.782142e-03 2.170561e-03 2.170790e-03 1.270757e-02 1.271951e-02 8.810969e-03 
    34.5                2.632966e-03 3.045704e-03 2.838921e-03 2.839918e-03 1.094503e-02 2.305214e-07 2.822792e-03 2.083803e-03 2.084074e-03 1.279057e-02 1.279892e-02 8.917762e-03 
    35.5                2.540507e-03 2.930291e-03 2.723910e-03 2.724202e-03 1.007996e-02 1.738682e-07 2.709359e-03 1.946065e-03 1.946341e-03 1.188484e-02 1.189665e-02 8.575180e-03 
    36.5                2.592187e-03 2.837134e-03 2.721386e-03 2.721524e-03 9.831766e-03 1.256453e-07 2.707901e-03 1.816640e-03 1.816886e-03 1.165069e-02 1.164233e-02 8.540026e-03 
    37.5                2.667940e-03 2.957096e-03 2.789100e-03 2.789506e-03 9.935510e-03 8.610078e-08 2.774812e-03 1.759334e-03 1.759521e-03 1.180820e-02 1.184174e-02 8.801769e-03 
    38.5                2.862054e-03 2.872970e-03 2.862415e-03 2.859717e-03 9.706209e-03 5.458334e-08 2.849105e-03 1.687883e-03 1.688180e-03 1.169215e-02 1.169303e-02 8.996362e-03 
    39.5                2.758940e-03 3.097346e-03 2.950994e-03 2.947026e-03 9.627937e-03 3.531624e-08 2.939041e-03 1.637220e-03 1.637432e-03 1.172014e-02 1.169441e-02 9.228365e-03 
    40.5                2.841997e-03 3.043824e-03 2.923399e-03 2.925136e-03 9.440014e-03 2.184133e-08 2.911839e-03 1.569439e-03 1.569840e-03 1.151830e-02 1.155114e-02 9.219317e-03 
    41.5                3.137101e-03 3.079497e-03 3.105998e-03 3.103451e-03 9.474571e-03 1.119323e-08 3.094959e-03 1.550624e-03 1.550807e-03 1.177534e-02 1.177883e-02 9.758230e-03 
    42.5                3.046922e-03 3.352407e-03 3.223239e-03 3.223436e-03 9.223211e-03 2.848531e-09 3.212874e-03 1.543337e-03 1.543477e-03 1.172339e-02 1.169280e-02 1.009046e-02 
    43.5                3.220212e-03 3.255918e-03 3.190849e-03 3.192279e-03 8.787287e-03 1.432989e-10 3.181097e-03 1.495985e-03 1.495977e-03 1.133377e-02 1.138990e-02 1.009932e-02 
    44.5                3.544766e-03 3.414056e-03 3.496429e-03 3.494185e-03 9.154638e-03 5.924401e-11 3.486211e-03 1.543082e-03 1.543341e-03 1.202578e-02 1.199916e-02 1.095815e-02 
    45.5                3.524021e-03 3.761114e-03 3.617687e-03 3.618551e-03 9.187984e-03 7.086044e-11 3.608334e-03 1.546322e-03 1.546523e-03 1.220469e-02 1.224416e-02 1.140322e-02 
    46.5                3.620093e-03 3.684416e-03 3.652987e-03 3.654490e-03 8.938910e-03 6.312390e-08 3.644033e-03 1.511619e-03 1.511874e-03 1.206667e-02 1.207383e-02 1.147672e-02 
    47.5                3.861906e-03 3.827247e-03 3.819831e-03 3.816440e-03 8.867167e-03 1.421453e-07 3.810972e-03 1.533771e-03 1.534069e-03 1.227283e-02 1.231264e-02 1.203724e-02 
    48.5                4.232329e-03 3.928775e-03 4.093647e-03 4.092825e-03 8.825528e-03 2.090309e-07 4.085155e-03 1.581912e-03 1.581858e-03 1.266066e-02 1.262876e-02 1.284011e-02 
    49.5                4.640467e-03 4.346019e-03 4.440451e-03 4.441652e-03 9.113418e-03 1.108418e-07 4.432940e-03 1.640401e-03 1.640467e-03 1.338383e-02 1.346201e-02 1.403030e-02 
    50.5                5.319827e-03 4.627331e-03 4.953360e-03 4.947307e-03 9.446787e-03 3.350744e-08 4.945841e-03 1.723436e-03 1.723681e-03 1.439579e-02 1.444349e-02 1.558751e-02 
    51.5                5.866196e-03 5.287143e-03 5.633528e-03 5.627776e-03 9.746462e-03 4.201322e-08 5.628615e-03 1.807762e-03 1.808053e-03 1.569582e-02 1.560984e-02 1.760735e-02 
    52.5                5.870189e-03 5.953907e-03 5.947542e-03 5.949244e-03 9.544598e-03 8.330122e-08 5.944615e-03 1.855439e-03 1.855440e-03 1.608681e-02 1.602458e-02 1.862862e-02 
    53.5                5.953370e-03 6.066579e-03 6.028359e-03 6.025965e-03 9.107533e-03 8.798031e-08 6.027725e-03 1.871682e-03 1.871914e-03 1.593452e-02 1.590429e-02 1.890725e-02 
    54.5                5.613606e-03 6.175879e-03 5.957472e-03 5.953148e-03 8.613906e-03 5.460492e-08 5.957794e-03 1.852624e-03 1.853090e-03 1.548612e-02 1.538348e-02 1.862073e-02 
    55.5                5.658083e-03 6.101839e-03 5.824974e-03 5.822087e-03 8.213826e-03 5.810578e-08 5.823668e-03 1.825600e-03 1.825779e-03 1.500584e-02 1.508959e-02 1.837878e-02 
    56.5                5.398583e-03 5.973246e-03 5.715537e-03 5.713566e-03 7.801856e-03 4.568696e-08 5.717037e-03 1.783065e-03 1.783236e-03 1.454709e-02 1.450744e-02 1.790526e-02 
    57.5                4.928948e-03 5.747737e-03 5.330741e-03 5.329796e-03 7.076973e-03 1.882037e-08 5.332258e-03 1.693325e-03 1.693392e-03 1.344213e-02 1.345687e-02 1.676448e-02 
    58.5                4.728442e-03 5.286111e-03 4.997134e-03 4.997276e-03 6.393890e-03 2.734831e-08 4.999268e-03 1.566850e-03 1.566960e-03 1.244460e-02 1.245715e-02 1.571441e-02 
    59.5                4.510668e-03 5.000297e-03 4.768331e-03 4.768134e-03 5.890655e-03 7.269630e-08 4.770655e-03 1.439364e-03 1.439666e-03 1.172941e-02 1.171704e-02 1.495621e-02 
    60.5                4.104069e-03 4.828383e-03 4.463142e-03 4.458239e-03 5.325405e-03 1.310835e-07 4.466294e-03 1.286645e-03 1.286934e-03 1.086381e-02 1.087095e-02 1.402198e-02 
    61.5                3.579268e-03 4.374411e-03 4.033898e-03 4.035101e-03 4.554151e-03 1.140264e-07 4.038195e-03 1.126816e-03 1.126894e-03 9.667002e-03 9.573841e-03 1.258956e-02 
    62.5                2.932213e-03 4.030619e-03 3.450016e-03 3.452161e-03 3.769301e-03 9.684735e-08 3.453837e-03 9.615588e-04 9.616528e-04 8.201986e-03 8.242700e-03 1.088733e-02 
    63.5                2.391412e-03 3.291887e-03 2.824349e-03 2.823934e-03 2.972876e-03 7.413690e-08 2.827951e-03 7.909513e-04 7.910143e-04 6.641283e-03 6.675428e-03 8.899274e-03 
    64.5                1.914535e-03 2.711676e-03 2.291483e-03 2.291460e-03 2.350687e-03 6.812647e-08 2.294551e-03 6.268648e-04 6.269680e-04 5.354134e-03 5.389518e-03 7.233722e-03 
    65.5                1.463187e-03 2.154467e-03 1.807458e-03 1.809283e-03 1.770571e-03 6.043555e-08 1.810652e-03 4.732670e-04 4.733259e-04 4.178349e-03 4.178172e-03 5.683082e-03 
    66.5                1.041655e-03 1.725660e-03 1.372933e-03 1.373389e-03 1.285403e-03 4.659572e-08 1.375853e-03 3.392544e-04 3.392921e-04 3.142148e-03 3.158332e-03 4.330209e-03 
    67.5                6.686129e-04 1.265133e-03 9.498548e-04 9.503387e-04 8.434414e-04 4.388920e-08 9.521258e-04 2.208247e-04 2.208851e-04 2.150859e-03 2.178731e-03 3.011574e-03 
    68.5                3.769568e-04 8.504116e-04 6.001289e-04 6.008297e-04 4.952797e-04 3.358013e-08 6.017720e-04 1.270981e-04 1.271066e-04 1.341350e-03 1.362809e-03 1.907751e-03 
    69.5                1.681304e-04 5.186244e-04 3.279019e-04 3.287323e-04 2.489228e-04 3.112363e-08 3.291031e-04 6.192604e-05 6.193977e-05 7.241867e-04 7.489452e-04 1.054646e-03 
    70.5                4.453905e-05 2.595511e-04 1.388963e-04 1.393369e-04 9.455881e-05 3.857911e-08 1.394143e-04 2.355737e-05 2.356121e-05 3.029745e-04 3.249176e-04 4.575063e-04 
    71.5                6.552019e-06 9.409151e-05 3.819637e-05 3.861062e-05 2.351914e-05 3.846492e-08 3.831156e-05 6.035711e-06 6.037823e-06 8.309696e-05 1.045611e-04 1.393421e-04 
    72.5                2.104708e-07 1.707455e-05 5.649240e-06 5.679651e-06 2.651614e-06 1.954325e-08 5.659986e-06 8.829179e-07 8.846454e-07 1.203284e-05 1.757778e-05 2.257641e-05 
    73.5                1.501161e-13 1.517733e-06 3.236489e-07 3.419158e-07 8.618007e-08 4.181991e-09 3.261455e-07 4.256835e-08 4.257208e-08 6.850354e-07 1.522112e-06 1.731863e-06 
    74.5                0.000000e+00 0.000000e+00 0.000000e+00 0.000000e+00 0.000000e+00 0.000000e+00 0.000000e+00 0.000000e+00 0.000000e+00 0.000000e+00 0.000000e+00 0.000000e+00 
    75.5                0.000000e+00 0.000000e+00 0.000000e+00 0.000000e+00 0.000000e+00 0.000000e+00 0.000000e+00 0.000000e+00 0.000000e+00 0.000000e+00 0.000000e+00 0.000000e+00 
    76.5                0.000000e+00 0.000000e+00 0.000000e+00 0.000000e+00 0.000000e+00 0.000000e+00 0.000000e+00 0.000000e+00 0.000000e+00 0.000000e+00 0.000000e+00 0.000000e+00 
    77.5                0.000000e+00 0.000000e+00 0.000000e+00 0.000000e+00 0.000000e+00 0.000000e+00 0.000000e+00 0.000000e+00 0.000000e+00 0.000000e+00 0.000000e+00 0.000000e+00 
    78.5                0.000000e+00 0.000000e+00 0.000000e+00 0.000000e+00 0.000000e+00 0.000000e+00 0.000000e+00 0.000000e+00 0.000000e+00 0.000000e+00 0.000000e+00 0.000000e+00 
    79.5                0.000000e+00 0.000000e+00 0.000000e+00 0.000000e+00 0.000000e+00 0.000000e+00 0.000000e+00 0.000000e+00 0.000000e+00 0.000000e+00 0.000000e+00 0.000000e+00 


