# 80 rows of flux data
# 12 columns of flux data
# 
# total cross-sectional flux  2.193500e+00 /m^2/yr
#
#                             +x ram      -x wake      +y port -y starboard    +z zenith     -z nadir        Earth          Sun     anti-Sun      rot (x)      rot (y)      rot (z) 
# average speed (km/s)         23.83        24.66        24.88        17.70        23.53        23.72        24.59        24.64        24.65        23.56        24.04        24.16 
# total flux (#/m2/yr)  6.244168e-01 7.319872e-01 9.698003e-01 1.410621e-01 8.270676e-01 8.878862e-04 1.222307e+00 9.518330e-01 9.642915e-01 1.466980e+00 1.747211e+00 1.944501e+00 
# velocity (km/s)
     0.5                0.000000e+00 0.000000e+00 0.000000e+00 0.000000e+00 0.000000e+00 0.000000e+00 0.000000e+00 0.000000e+00 0.000000e+00 0.000000e+00 0.000000e+00 0.000000e+00 
     1.5                0.000000e+00 0.000000e+00 0.000000e+00 0.000000e+00 0.000000e+00 0.000000e+00 0.000000e+00 0.000000e+00 0.000000e+00 0.000000e+00 0.000000e+00 0.000000e+00 
     2.5                5.548658e-06 0.000000e+00 9.215502e-07 1.063420e-06 2.342343e-06 9.453555e-10 1.774691e-06 3.424830e-07 1.501464e-06 3.368793e-06 6.182363e-06 6.053659e-06 
     3.5                1.320923e-04 3.654900e-06 6.559868e-05 2.947457e-05 8.401711e-05 6.592874e-08 9.425115e-05 2.928386e-05 5.631333e-05 1.370871e-04 1.740392e-04 1.819941e-04 
     4.5                5.772323e-04 1.375356e-04 4.037626e-04 1.605087e-04 4.695663e-04 4.274046e-07 5.572519e-04 2.002742e-04 2.927165e-04 8.002977e-04 9.376598e-04 1.005823e-03 
     5.5                1.531542e-03 6.282819e-04 1.356573e-03 5.665166e-04 1.563417e-03 1.402248e-06 1.859536e-03 7.995201e-04 9.759052e-04 2.726413e-03 2.942348e-03 3.208153e-03 
     6.5                2.852403e-03 2.030188e-03 3.000585e-03 1.293451e-03 3.466110e-03 3.423753e-06 4.111763e-03 2.001243e-03 2.220619e-03 6.107232e-03 6.605101e-03 7.213744e-03 
     7.5                5.027362e-03 3.729035e-03 5.253171e-03 2.385382e-03 6.238103e-03 6.135916e-06 7.237934e-03 3.855788e-03 4.037299e-03 1.093747e-02 1.186148e-02 1.288601e-02 
     8.5                7.481127e-03 6.234544e-03 8.517160e-03 3.641910e-03 9.851611e-03 9.830547e-06 1.165164e-02 6.469412e-03 6.533524e-03 1.734020e-02 1.862913e-02 2.032182e-02 
     9.5                9.488206e-03 9.504236e-03 1.187913e-02 5.053458e-03 1.372873e-02 1.392941e-05 1.622699e-02 9.589120e-03 9.584915e-03 2.417746e-02 2.588085e-02 2.822199e-02 
    10.5                1.150108e-02 1.278053e-02 1.446031e-02 6.752475e-03 1.744084e-02 1.781386e-05 1.997642e-02 1.302513e-02 1.311233e-02 3.054603e-02 3.300317e-02 3.575479e-02 
    11.5                1.320225e-02 1.497906e-02 1.689170e-02 8.023665e-03 2.070488e-02 2.017771e-05 2.340194e-02 1.641230e-02 1.659845e-02 3.599411e-02 3.864796e-02 4.173548e-02 
    12.5                1.446421e-02 1.715170e-02 1.890065e-02 8.720573e-03 2.304060e-02 2.215686e-05 2.605715e-02 1.945390e-02 1.965797e-02 3.984758e-02 4.322687e-02 4.655109e-02 
    13.5                1.643965e-02 1.844462e-02 2.115063e-02 9.150130e-03 2.509468e-02 2.460757e-05 2.887944e-02 2.243064e-02 2.263358e-02 4.345038e-02 4.750041e-02 5.122164e-02 
    14.5                1.817027e-02 2.013461e-02 2.406279e-02 9.183859e-03 2.708394e-02 2.714824e-05 3.236553e-02 2.557112e-02 2.581314e-02 4.715488e-02 5.187286e-02 5.623723e-02 
    15.5                1.974821e-02 2.189541e-02 2.697000e-02 8.876966e-03 2.863482e-02 2.963589e-05 3.571252e-02 2.857303e-02 2.884454e-02 5.019837e-02 5.585894e-02 6.093220e-02 
    16.5                2.117058e-02 2.378318e-02 2.961426e-02 8.640673e-03 3.013236e-02 3.173130e-05 3.882641e-02 3.138747e-02 3.168016e-02 5.305199e-02 5.976999e-02 6.544915e-02 
    17.5                2.254819e-02 2.513638e-02 3.201867e-02 8.137886e-03 3.115883e-02 3.340203e-05 4.153895e-02 3.389797e-02 3.421021e-02 5.511696e-02 6.283067e-02 6.911031e-02 
    18.5                2.354660e-02 2.638934e-02 3.436628e-02 7.468009e-03 3.192446e-02 3.493227e-05 4.411441e-02 3.612408e-02 3.645580e-02 5.679881e-02 6.532458e-02 7.222322e-02 
    19.5                2.429414e-02 2.759108e-02 3.610851e-02 6.957570e-03 3.252322e-02 3.604555e-05 4.603327e-02 3.789743e-02 3.824924e-02 5.803132e-02 6.744260e-02 7.474899e-02 
    20.5                2.497136e-02 2.821082e-02 3.747153e-02 6.341627e-03 3.275306e-02 3.658527e-05 4.744475e-02 3.911411e-02 3.949081e-02 5.856128e-02 6.872933e-02 7.637752e-02 
    21.5                2.599303e-02 2.867114e-02 3.903270e-02 5.735771e-03 3.312288e-02 3.716166e-05 4.913279e-02 4.043509e-02 4.084708e-02 5.936142e-02 7.025408e-02 7.831110e-02 
    22.5                2.662956e-02 2.958825e-02 4.072055e-02 5.275989e-03 3.378589e-02 3.778145e-05 5.099602e-02 4.180751e-02 4.225671e-02 6.059561e-02 7.208941e-02 8.052169e-02 
    23.5                2.687556e-02 3.036832e-02 4.181221e-02 4.676177e-03 3.386327e-02 3.805114e-05 5.210691e-02 4.257750e-02 4.305870e-02 6.082403e-02 7.302750e-02 8.173136e-02 
    24.5                2.700308e-02 3.052900e-02 4.237401e-02 4.130315e-03 3.366884e-02 3.775964e-05 5.259731e-02 4.277660e-02 4.329175e-02 6.047666e-02 7.314881e-02 8.199001e-02 
    25.5                2.687907e-02 3.057651e-02 4.272407e-02 3.564382e-03 3.332128e-02 3.712817e-05 5.283425e-02 4.267536e-02 4.322083e-02 5.981888e-02 7.285128e-02 8.178065e-02 
    26.5                2.619678e-02 3.043694e-02 4.243707e-02 3.061403e-03 3.261175e-02 3.606414e-05 5.231694e-02 4.200261e-02 4.256279e-02 5.847611e-02 7.165616e-02 8.052960e-02 
    27.5                2.552660e-02 2.980416e-02 4.156096e-02 2.612718e-03 3.153884e-02 3.497980e-05 5.110567e-02 4.086416e-02 4.143102e-02 5.649865e-02 6.979637e-02 7.848446e-02 
    28.5                2.466209e-02 2.883696e-02 4.051233e-02 2.214334e-03 3.042327e-02 3.329047e-05 4.970969e-02 3.943104e-02 3.999878e-02 5.440388e-02 6.743941e-02 7.590882e-02 
    29.5                2.351257e-02 2.793631e-02 3.911106e-02 1.840407e-03 2.907431e-02 3.168119e-05 4.789637e-02 3.775260e-02 3.831672e-02 5.192482e-02 6.473591e-02 7.290983e-02 
    30.5                2.223060e-02 2.664965e-02 3.729686e-02 1.515727e-03 2.749744e-02 2.976905e-05 4.560201e-02 3.569826e-02 3.624806e-02 4.901644e-02 6.142131e-02 6.921538e-02 
    31.5                2.073279e-02 2.522581e-02 3.520365e-02 1.216656e-03 2.574351e-02 2.775324e-05 4.297803e-02 3.338038e-02 3.390865e-02 4.580925e-02 5.767925e-02 6.504042e-02 
    32.5                1.900878e-02 2.358936e-02 3.274386e-02 9.708862e-04 2.379176e-02 2.549563e-05 3.993089e-02 3.074344e-02 3.124245e-02 4.225537e-02 5.341581e-02 6.026685e-02 
    33.5                1.707241e-02 2.177005e-02 2.989378e-02 7.685634e-04 2.160803e-02 2.314433e-05 3.642426e-02 2.781791e-02 2.827670e-02 3.831605e-02 4.864995e-02 5.490495e-02 
    34.5                1.513628e-02 1.965628e-02 2.680674e-02 6.020287e-04 1.929487e-02 2.062238e-05 3.264244e-02 2.472553e-02 2.513882e-02 3.416008e-02 4.353819e-02 4.914881e-02 
    35.5                1.320922e-02 1.750912e-02 2.368375e-02 4.577833e-04 1.697881e-02 1.813521e-05 2.882211e-02 2.164673e-02 2.201467e-02 3.000945e-02 3.840233e-02 4.335990e-02 
    36.5                1.134039e-02 1.533562e-02 2.060787e-02 3.363473e-04 1.471490e-02 1.567515e-05 2.506675e-02 1.863812e-02 1.895766e-02 2.596623e-02 3.332865e-02 3.764674e-02 
    37.5                9.528417e-03 1.325686e-02 1.761064e-02 2.427639e-04 1.253438e-02 1.335096e-05 2.141315e-02 1.576495e-02 1.603879e-02 2.208340e-02 2.844383e-02 3.213509e-02 
    38.5                7.745772e-03 1.121843e-02 1.468492e-02 1.692347e-04 1.042170e-02 1.107904e-05 1.785105e-02 1.300138e-02 1.322771e-02 1.833516e-02 2.366770e-02 2.674896e-02 
    39.5                6.020861e-03 9.266637e-03 1.182389e-02 1.140434e-04 8.371042e-03 8.918525e-06 1.437133e-02 1.036295e-02 1.054101e-02 1.470877e-02 1.905849e-02 2.153938e-02 
    40.5                4.450255e-03 7.343751e-03 9.097778e-03 7.333786e-05 6.428329e-03 6.889081e-06 1.105748e-02 7.896559e-03 8.030771e-03 1.128175e-02 1.468426e-02 1.659256e-02 
    41.5                3.139627e-03 5.554587e-03 6.666897e-03 4.496262e-05 4.703209e-03 5.098080e-06 8.103267e-03 5.740795e-03 5.835548e-03 8.245223e-03 1.080129e-02 1.219762e-02 
    42.5                2.095687e-03 3.989607e-03 4.656876e-03 2.621156e-05 3.280887e-03 3.572115e-06 5.660901e-03 3.969405e-03 4.033430e-03 5.746200e-03 7.553177e-03 8.528440e-03 
    43.5                1.255094e-03 2.743960e-03 3.048256e-03 1.437850e-05 2.145266e-03 2.355909e-06 3.706196e-03 2.574084e-03 2.613940e-03 3.754294e-03 4.956712e-03 5.594578e-03 
    44.5                6.528476e-04 1.741332e-03 1.792150e-03 7.367426e-06 1.260280e-03 1.429528e-06 2.179609e-03 1.511482e-03 1.532283e-03 2.204294e-03 2.951528e-03 3.324469e-03 
    45.5                2.708515e-04 9.717008e-04 9.073033e-04 3.318101e-06 6.376156e-04 7.562417e-07 1.103860e-03 7.676219e-04 7.763249e-04 1.114804e-03 1.520869e-03 1.708190e-03 
    46.5                7.948830e-05 4.535882e-04 3.663965e-04 1.293994e-06 2.573702e-04 3.405225e-07 4.459570e-04 3.175058e-04 3.201255e-04 4.499765e-04 6.418112e-04 7.158876e-04 
    47.5                1.555224e-05 1.560517e-04 1.075260e-04 4.024320e-07 7.551335e-05 1.173678e-07 1.309432e-04 9.765465e-05 9.772868e-05 1.320619e-04 2.019477e-04 2.229639e-04 
    48.5                1.406172e-06 3.762695e-05 2.160330e-05 8.835894e-08 1.516748e-05 2.914322e-08 2.632592e-05 2.097715e-05 2.085706e-05 2.653891e-05 4.460990e-05 4.860371e-05 
    49.5                1.245158e-08 5.215045e-06 2.306963e-06 1.192918e-08 1.619732e-06 4.160331e-09 2.815098e-06 2.580732e-06 2.535903e-06 2.837791e-06 5.698138e-06 6.069530e-06 
    50.5                0.000000e+00 1.498928e-07 4.318676e-08 3.704560e-10 3.038017e-08 1.236524e-10 5.294183e-08 6.667598e-08 6.387135e-08 5.337712e-08 1.547220e-07 1.593120e-07 
    51.5                0.000000e+00 0.000000e+00 0.000000e+00 0.000000e+00 0.000000e+00 0.000000e+00 0.000000e+00 0.000000e+00 0.000000e+00 0.000000e+00 0.000000e+00 0.000000e+00 
    52.5                0.000000e+00 0.000000e+00 0.000000e+00 0.000000e+00 0.000000e+00 0.000000e+00 0.000000e+00 0.000000e+00 0.000000e+00 0.000000e+00 0.000000e+00 0.000000e+00 
    53.5                0.000000e+00 0.000000e+00 0.000000e+00 0.000000e+00 0.000000e+00 0.000000e+00 0.000000e+00 0.000000e+00 0.000000e+00 0.000000e+00 0.000000e+00 0.000000e+00 
    54.5                0.000000e+00 0.000000e+00 0.000000e+00 0.000000e+00 0.000000e+00 0.000000e+00 0.000000e+00 0.000000e+00 0.000000e+00 0.000000e+00 0.000000e+00 0.000000e+00 
    55.5                0.000000e+00 0.000000e+00 0.000000e+00 0.000000e+00 0.000000e+00 0.000000e+00 0.000000e+00 0.000000e+00 0.000000e+00 0.000000e+00 0.000000e+00 0.000000e+00 
    56.5                0.000000e+00 0.000000e+00 0.000000e+00 0.000000e+00 0.000000e+00 0.000000e+00 0.000000e+00 0.000000e+00 0.000000e+00 0.000000e+00 0.000000e+00 0.000000e+00 
    57.5                0.000000e+00 0.000000e+00 0.000000e+00 0.000000e+00 0.000000e+00 0.000000e+00 0.000000e+00 0.000000e+00 0.000000e+00 0.000000e+00 0.000000e+00 0.000000e+00 
    58.5                0.000000e+00 0.000000e+00 0.000000e+00 0.000000e+00 0.000000e+00 0.000000e+00 0.000000e+00 0.000000e+00 0.000000e+00 0.000000e+00 0.000000e+00 0.000000e+00 
    59.5                0.000000e+00 0.000000e+00 0.000000e+00 0.000000e+00 0.000000e+00 0.000000e+00 0.000000e+00 0.000000e+00 0.000000e+00 0.000000e+00 0.000000e+00 0.000000e+00 
    60.5                0.000000e+00 0.000000e+00 0.000000e+00 0.000000e+00 0.000000e+00 0.000000e+00 0.000000e+00 0.000000e+00 0.000000e+00 0.000000e+00 0.000000e+00 0.000000e+00 
    61.5                0.000000e+00 0.000000e+00 0.000000e+00 0.000000e+00 0.000000e+00 0.000000e+00 0.000000e+00 0.000000e+00 0.000000e+00 0.000000e+00 0.000000e+00 0.000000e+00 
    62.5                0.000000e+00 0.000000e+00 0.000000e+00 0.000000e+00 0.000000e+00 0.000000e+00 0.000000e+00 0.000000e+00 0.000000e+00 0.000000e+00 0.000000e+00 0.000000e+00 
    63.5                0.000000e+00 0.000000e+00 0.000000e+00 0.000000e+00 0.000000e+00 0.000000e+00 0.000000e+00 0.000000e+00 0.000000e+00 0.000000e+00 0.000000e+00 0.000000e+00 
    64.5                0.000000e+00 0.000000e+00 0.000000e+00 0.000000e+00 0.000000e+00 0.000000e+00 0.000000e+00 0.000000e+00 0.000000e+00 0.000000e+00 0.000000e+00 0.000000e+00 
    65.5                0.000000e+00 0.000000e+00 0.000000e+00 0.000000e+00 0.000000e+00 0.000000e+00 0.000000e+00 0.000000e+00 0.000000e+00 0.000000e+00 0.000000e+00 0.000000e+00 
    66.5                0.000000e+00 0.000000e+00 0.000000e+00 0.000000e+00 0.000000e+00 0.000000e+00 0.000000e+00 0.000000e+00 0.000000e+00 0.000000e+00 0.000000e+00 0.000000e+00 
    67.5                0.000000e+00 0.000000e+00 0.000000e+00 0.000000e+00 0.000000e+00 0.000000e+00 0.000000e+00 0.000000e+00 0.000000e+00 0.000000e+00 0.000000e+00 0.000000e+00 
    68.5                0.000000e+00 0.000000e+00 0.000000e+00 0.000000e+00 0.000000e+00 0.000000e+00 0.000000e+00 0.000000e+00 0.000000e+00 0.000000e+00 0.000000e+00 0.000000e+00 
    69.5                0.000000e+00 0.000000e+00 0.000000e+00 0.000000e+00 0.000000e+00 0.000000e+00 0.000000e+00 0.000000e+00 0.000000e+00 0.000000e+00 0.000000e+00 0.000000e+00 
    70.5                0.000000e+00 0.000000e+00 0.000000e+00 0.000000e+00 0.000000e+00 0.000000e+00 0.000000e+00 0.000000e+00 0.000000e+00 0.000000e+00 0.000000e+00 0.000000e+00 
    71.5                0.000000e+00 0.000000e+00 0.000000e+00 0.000000e+00 0.000000e+00 0.000000e+00 0.000000e+00 0.000000e+00 0.000000e+00 0.000000e+00 0.000000e+00 0.000000e+00 
    72.5                0.000000e+00 0.000000e+00 0.000000e+00 0.000000e+00 0.000000e+00 0.000000e+00 0.000000e+00 0.000000e+00 0.000000e+00 0.000000e+00 0.000000e+00 0.000000e+00 
    73.5                0.000000e+00 0.000000e+00 0.000000e+00 0.000000e+00 0.000000e+00 0.000000e+00 0.000000e+00 0.000000e+00 0.000000e+00 0.000000e+00 0.000000e+00 0.000000e+00 
    74.5                0.000000e+00 0.000000e+00 0.000000e+00 0.000000e+00 0.000000e+00 0.000000e+00 0.000000e+00 0.000000e+00 0.000000e+00 0.000000e+00 0.000000e+00 0.000000e+00 
    75.5                0.000000e+00 0.000000e+00 0.000000e+00 0.000000e+00 0.000000e+00 0.000000e+00 0.000000e+00 0.000000e+00 0.000000e+00 0.000000e+00 0.000000e+00 0.000000e+00 
    76.5                0.000000e+00 0.000000e+00 0.000000e+00 0.000000e+00 0.000000e+00 0.000000e+00 0.000000e+00 0.000000e+00 0.000000e+00 0.000000e+00 0.000000e+00 0.000000e+00 
    77.5                0.000000e+00 0.000000e+00 0.000000e+00 0.000000e+00 0.000000e+00 0.000000e+00 0.000000e+00 0.000000e+00 0.000000e+00 0.000000e+00 0.000000e+00 0.000000e+00 
    78.5                0.000000e+00 0.000000e+00 0.000000e+00 0.000000e+00 0.000000e+00 0.000000e+00 0.000000e+00 0.000000e+00 0.000000e+00 0.000000e+00 0.000000e+00 0.000000e+00 
    79.5                0.000000e+00 0.000000e+00 0.000000e+00 0.000000e+00 0.000000e+00 0.000000e+00 0.000000e+00 0.000000e+00 0.000000e+00 0.000000e+00 0.000000e+00 0.000000e+00 


