# 80 rows of flux data
# 12 columns of flux data
# 
# total cross-sectional flux  2.308216e+00 /m^2/yr
#
#                             +x ram      -x wake      +y port -y starboard    +z zenith     -z nadir        Earth          Sun     anti-Sun      rot (x)      rot (y)      rot (z) 
# average speed (km/s)         24.88        24.05        21.54        25.46        21.17        26.44        21.76        24.81        24.79        23.71        23.95        24.40 
# total flux (#/m2/yr)  7.695272e-01 6.561010e-01 4.089602e-01 9.684845e-01 4.885019e-01 2.159445e-03 3.775377e-01 1.015214e+00 1.008507e+00 1.546782e+00 1.604997e+00 2.202579e+00 
# velocity (km/s)
     0.5                0.000000e+00 0.000000e+00 0.000000e+00 0.000000e+00 0.000000e+00 0.000000e+00 0.000000e+00 0.000000e+00 0.000000e+00 0.000000e+00 0.000000e+00 0.000000e+00 
     1.5                0.000000e+00 0.000000e+00 0.000000e+00 0.000000e+00 0.000000e+00 0.000000e+00 0.000000e+00 0.000000e+00 0.000000e+00 0.000000e+00 0.000000e+00 0.000000e+00 
     2.5                0.000000e+00 5.573896e-06 1.202987e-06 1.106135e-06 2.397987e-06 2.112482e-10 1.016354e-06 1.015899e-06 6.661088e-07 3.559530e-06 6.139003e-06 6.248769e-06 
     3.5                6.239726e-06 1.465532e-04 6.702945e-05 7.523390e-05 7.351366e-05 7.867145e-08 6.120585e-05 5.498552e-05 4.799593e-05 1.722492e-04 1.796111e-04 2.320557e-04 
     4.5                1.758176e-04 6.042200e-04 3.234014e-04 4.229055e-04 3.915476e-04 5.832026e-07 2.929552e-04 2.959647e-04 2.659595e-04 9.099288e-04 9.364956e-04 1.198618e-03 
     5.5                6.916841e-04 1.571052e-03 1.011895e-03 1.332119e-03 1.310049e-03 1.926197e-06 9.095156e-04 9.837809e-04 9.245999e-04 2.909081e-03 2.838810e-03 3.620509e-03 
     6.5                2.108358e-03 2.917293e-03 2.210270e-03 2.852543e-03 2.935920e-03 4.293551e-06 1.980260e-03 2.242346e-03 2.177317e-03 6.342480e-03 6.322979e-03 7.921291e-03 
     7.5                3.811364e-03 5.112109e-03 3.869737e-03 4.963606e-03 5.331996e-03 7.657971e-06 3.450041e-03 4.100649e-03 4.054561e-03 1.122176e-02 1.130776e-02 1.394260e-02 
     8.5                6.371081e-03 7.546656e-03 6.124321e-03 7.940155e-03 8.315618e-03 1.214739e-05 5.472027e-03 6.682619e-03 6.672676e-03 1.773941e-02 1.760356e-02 2.197346e-02 
     9.5                9.641185e-03 9.567752e-03 8.526583e-03 1.091361e-02 1.162774e-02 1.671828e-05 7.609268e-03 9.814480e-03 9.810809e-03 2.459590e-02 2.441930e-02 3.035875e-02 
    10.5                1.287434e-02 1.161150e-02 1.065841e-02 1.344594e-02 1.503147e-02 2.072125e-05 9.457792e-03 1.336774e-02 1.332425e-02 3.092048e-02 3.128773e-02 3.816308e-02 
    11.5                1.514824e-02 1.337338e-02 1.245379e-02 1.591705e-02 1.782465e-02 2.522592e-05 1.102001e-02 1.689521e-02 1.681939e-02 3.655797e-02 3.675093e-02 4.469215e-02 
    12.5                1.737501e-02 1.466739e-02 1.362255e-02 1.786994e-02 1.964775e-02 2.903648e-05 1.203540e-02 2.003187e-02 1.994845e-02 4.059075e-02 4.108004e-02 4.990916e-02 
    13.5                1.873928e-02 1.670233e-02 1.477598e-02 1.990926e-02 2.101624e-02 3.377079e-05 1.308112e-02 2.311556e-02 2.303142e-02 4.435864e-02 4.505752e-02 5.507299e-02 
    14.5                2.048322e-02 1.848406e-02 1.599949e-02 2.241990e-02 2.197994e-02 3.911128e-05 1.424125e-02 2.639540e-02 2.630058e-02 4.828673e-02 4.883737e-02 6.077846e-02 
    15.5                2.230893e-02 2.014267e-02 1.696879e-02 2.490798e-02 2.235531e-02 4.502338e-05 1.520501e-02 2.955778e-02 2.945442e-02 5.158801e-02 5.218328e-02 6.624176e-02 
    16.5                2.430729e-02 2.167699e-02 1.784860e-02 2.741763e-02 2.267319e-02 5.187536e-05 1.608689e-02 3.258988e-02 3.247220e-02 5.480098e-02 5.559495e-02 7.166319e-02 
    17.5                2.576605e-02 2.314898e-02 1.835978e-02 2.969760e-02 2.252742e-02 5.801068e-05 1.664213e-02 3.530619e-02 3.517727e-02 5.718421e-02 5.811827e-02 7.615941e-02 
    18.5                2.715008e-02 2.423698e-02 1.876495e-02 3.184307e-02 2.210548e-02 6.412604e-05 1.711617e-02 3.774896e-02 3.760950e-02 5.916417e-02 6.009029e-02 8.010574e-02 
    19.5                2.843464e-02 2.507129e-02 1.894013e-02 3.352047e-02 2.176115e-02 6.894871e-05 1.734887e-02 3.968613e-02 3.954183e-02 6.058910e-02 6.182685e-02 8.322647e-02 
    20.5                2.913778e-02 2.586724e-02 1.877833e-02 3.496673e-02 2.107467e-02 7.356539e-05 1.727411e-02 4.108086e-02 4.091802e-02 6.132855e-02 6.280311e-02 8.541625e-02 
    21.5                2.972955e-02 2.699969e-02 1.866742e-02 3.674545e-02 2.041189e-02 7.909117e-05 1.725569e-02 4.262327e-02 4.244107e-02 6.241384e-02 6.398617e-02 8.808484e-02 
    22.5                3.078435e-02 2.773393e-02 1.876755e-02 3.855343e-02 2.008016e-02 8.491479e-05 1.741305e-02 4.423391e-02 4.403399e-02 6.396564e-02 6.550323e-02 9.099019e-02 
    23.5                3.168378e-02 2.809098e-02 1.852612e-02 3.981780e-02 1.932805e-02 8.984671e-05 1.726678e-02 4.520343e-02 4.498781e-02 6.443911e-02 6.623489e-02 9.277626e-02 
    24.5                3.193239e-02 2.832430e-02 1.797151e-02 4.071844e-02 1.847371e-02 9.326260e-05 1.681150e-02 4.556299e-02 4.532595e-02 6.426868e-02 6.623425e-02 9.342879e-02 
    25.5                3.209648e-02 2.831636e-02 1.726896e-02 4.151841e-02 1.748925e-02 9.699191e-05 1.622044e-02 4.564183e-02 4.538104e-02 6.381081e-02 6.589211e-02 9.363248e-02 
    26.5                3.207481e-02 2.770744e-02 1.629627e-02 4.180879e-02 1.641881e-02 9.950426e-05 1.535937e-02 4.510510e-02 4.482553e-02 6.261658e-02 6.477938e-02 9.260751e-02 
    27.5                3.154623e-02 2.711321e-02 1.522542e-02 4.148131e-02 1.527277e-02 1.012098e-04 1.439807e-02 4.406169e-02 4.377209e-02 6.072052e-02 6.318627e-02 9.062779e-02 
    28.5                3.063008e-02 2.629988e-02 1.405055e-02 4.100255e-02 1.417757e-02 1.009921e-04 1.332666e-02 4.266347e-02 4.235906e-02 5.862246e-02 6.103887e-02 8.797037e-02 
    29.5                2.979849e-02 2.516515e-02 1.286219e-02 4.009126e-02 1.305397e-02 1.000600e-04 1.223850e-02 4.098413e-02 4.067015e-02 5.608399e-02 5.865950e-02 8.477728e-02 
    30.5                2.852399e-02 2.391296e-02 1.156208e-02 3.877852e-02 1.188318e-02 9.792127e-05 1.103712e-02 3.888274e-02 3.856325e-02 5.305873e-02 5.572232e-02 8.074698e-02 
    31.5                2.710355e-02 2.240511e-02 1.010329e-02 3.720599e-02 1.069173e-02 9.425723e-05 9.675949e-03 3.645654e-02 3.613181e-02 4.962335e-02 5.239848e-02 7.607437e-02 
    32.5                2.546038e-02 2.062123e-02 8.665238e-03 3.518764e-02 9.521757e-03 8.936511e-05 8.325544e-03 3.367025e-02 3.334726e-02 4.580696e-02 4.860388e-02 7.067452e-02 
    33.5                2.360166e-02 1.858511e-02 7.332632e-03 3.259120e-02 8.374972e-03 8.330600e-05 7.067502e-03 3.054461e-02 3.023294e-02 4.155891e-02 4.437002e-02 6.453584e-02 
    34.5                2.138823e-02 1.655140e-02 6.037540e-03 2.964289e-02 7.261562e-03 7.584780e-05 5.838186e-03 2.720470e-02 2.690990e-02 3.703108e-02 3.980721e-02 5.787241e-02 
    35.5                1.911245e-02 1.449272e-02 4.781449e-03 2.656282e-02 6.205457e-03 6.720807e-05 4.639314e-03 2.383224e-02 2.355698e-02 3.243786e-02 3.517666e-02 5.106828e-02 
    36.5                1.680234e-02 1.247402e-02 3.656238e-03 2.343583e-02 5.222013e-03 5.833141e-05 3.562751e-03 2.052509e-02 2.027211e-02 2.795616e-02 3.057876e-02 4.433748e-02 
    37.5                1.456821e-02 1.050252e-02 2.707861e-03 2.027104e-02 4.333914e-03 4.953473e-05 2.651106e-03 1.735200e-02 1.712732e-02 2.365347e-02 2.613724e-02 3.781251e-02 
    38.5                1.236521e-02 8.547185e-03 1.930950e-03 1.707969e-02 3.519959e-03 4.085051e-05 1.901479e-03 1.429692e-02 1.410276e-02 1.952523e-02 2.176929e-02 3.143844e-02 
    39.5                1.023782e-02 6.646042e-03 1.310753e-03 1.387172e-02 2.772460e-03 3.239915e-05 1.299795e-03 1.137697e-02 1.121772e-02 1.556373e-02 1.755034e-02 2.526931e-02 
    40.5                8.133382e-03 4.909514e-03 8.402224e-04 1.075030e-02 2.093165e-03 2.462490e-05 8.407628e-04 8.655649e-03 8.532616e-03 1.186187e-02 1.354069e-02 1.943073e-02 
    41.5                6.163950e-03 3.459459e-03 5.056158e-04 7.919646e-03 1.510541e-03 1.783848e-05 5.119299e-04 6.280254e-03 6.190560e-03 8.610392e-03 9.978344e-03 1.425286e-02 
    42.5                4.434900e-03 2.303770e-03 2.893430e-04 5.554205e-03 1.041932e-03 1.228886e-05 2.971937e-04 4.334731e-03 4.272975e-03 5.964705e-03 6.981520e-03 9.948101e-03 
    43.5                3.055231e-03 1.375619e-03 1.585965e-04 3.644601e-03 6.752000e-04 8.015489e-06 1.656712e-04 2.806961e-03 2.768515e-03 3.878199e-03 4.587089e-03 6.518358e-03 
    44.5                1.944144e-03 7.124426e-04 8.044975e-05 2.147353e-03 3.943746e-04 4.809453e-06 8.580439e-05 1.646975e-03 1.626701e-03 2.270066e-03 2.746317e-03 3.871587e-03 
    45.5                1.088251e-03 2.934785e-04 3.657992e-05 1.088418e-03 1.986211e-04 2.527818e-06 3.989806e-05 8.361468e-04 8.273136e-04 1.145689e-03 1.425958e-03 1.989343e-03 
    46.5                5.103478e-04 8.552442e-05 1.448488e-05 4.400952e-04 8.006875e-05 1.129508e-06 1.614884e-05 3.465491e-04 3.442467e-04 4.628048e-04 6.128887e-04 8.349821e-04 
    47.5                1.771058e-04 1.649709e-05 4.500992e-06 1.293687e-04 2.353408e-05 3.871562e-07 5.133189e-06 1.069458e-04 1.068282e-04 1.362856e-04 1.982605e-04 2.610327e-04 
    48.5                4.302611e-05 1.426580e-06 9.948185e-07 2.605135e-05 4.738828e-06 9.391583e-08 1.158611e-06 2.308928e-05 2.321983e-05 2.753454e-05 4.527421e-05 5.712580e-05 
    49.5                6.051151e-06 1.196792e-08 1.397727e-07 2.804597e-06 5.130579e-07 1.377153e-08 1.652174e-07 2.879756e-06 2.927990e-06 2.999024e-06 6.124225e-06 7.215231e-06 
    50.5                1.790193e-07 0.000000e+00 4.581687e-09 5.334353e-08 9.944985e-09 4.641510e-10 5.629581e-09 7.624702e-08 7.831714e-08 5.909967e-08 1.795547e-07 1.931568e-07 
    51.5                0.000000e+00 0.000000e+00 0.000000e+00 0.000000e+00 0.000000e+00 0.000000e+00 0.000000e+00 0.000000e+00 0.000000e+00 0.000000e+00 0.000000e+00 0.000000e+00 
    52.5                0.000000e+00 0.000000e+00 0.000000e+00 0.000000e+00 0.000000e+00 0.000000e+00 0.000000e+00 0.000000e+00 0.000000e+00 0.000000e+00 0.000000e+00 0.000000e+00 
    53.5                0.000000e+00 0.000000e+00 0.000000e+00 0.000000e+00 0.000000e+00 0.000000e+00 0.000000e+00 0.000000e+00 0.000000e+00 0.000000e+00 0.000000e+00 0.000000e+00 
    54.5                0.000000e+00 0.000000e+00 0.000000e+00 0.000000e+00 0.000000e+00 0.000000e+00 0.000000e+00 0.000000e+00 0.000000e+00 0.000000e+00 0.000000e+00 0.000000e+00 
    55.5                0.000000e+00 0.000000e+00 0.000000e+00 0.000000e+00 0.000000e+00 0.000000e+00 0.000000e+00 0.000000e+00 0.000000e+00 0.000000e+00 0.000000e+00 0.000000e+00 
    56.5                0.000000e+00 0.000000e+00 0.000000e+00 0.000000e+00 0.000000e+00 0.000000e+00 0.000000e+00 0.000000e+00 0.000000e+00 0.000000e+00 0.000000e+00 0.000000e+00 
    57.5                0.000000e+00 0.000000e+00 0.000000e+00 0.000000e+00 0.000000e+00 0.000000e+00 0.000000e+00 0.000000e+00 0.000000e+00 0.000000e+00 0.000000e+00 0.000000e+00 
    58.5                0.000000e+00 0.000000e+00 0.000000e+00 0.000000e+00 0.000000e+00 0.000000e+00 0.000000e+00 0.000000e+00 0.000000e+00 0.000000e+00 0.000000e+00 0.000000e+00 
    59.5                0.000000e+00 0.000000e+00 0.000000e+00 0.000000e+00 0.000000e+00 0.000000e+00 0.000000e+00 0.000000e+00 0.000000e+00 0.000000e+00 0.000000e+00 0.000000e+00 
    60.5                0.000000e+00 0.000000e+00 0.000000e+00 0.000000e+00 0.000000e+00 0.000000e+00 0.000000e+00 0.000000e+00 0.000000e+00 0.000000e+00 0.000000e+00 0.000000e+00 
    61.5                0.000000e+00 0.000000e+00 0.000000e+00 0.000000e+00 0.000000e+00 0.000000e+00 0.000000e+00 0.000000e+00 0.000000e+00 0.000000e+00 0.000000e+00 0.000000e+00 
    62.5                0.000000e+00 0.000000e+00 0.000000e+00 0.000000e+00 0.000000e+00 0.000000e+00 0.000000e+00 0.000000e+00 0.000000e+00 0.000000e+00 0.000000e+00 0.000000e+00 
    63.5                0.000000e+00 0.000000e+00 0.000000e+00 0.000000e+00 0.000000e+00 0.000000e+00 0.000000e+00 0.000000e+00 0.000000e+00 0.000000e+00 0.000000e+00 0.000000e+00 
    64.5                0.000000e+00 0.000000e+00 0.000000e+00 0.000000e+00 0.000000e+00 0.000000e+00 0.000000e+00 0.000000e+00 0.000000e+00 0.000000e+00 0.000000e+00 0.000000e+00 
    65.5                0.000000e+00 0.000000e+00 0.000000e+00 0.000000e+00 0.000000e+00 0.000000e+00 0.000000e+00 0.000000e+00 0.000000e+00 0.000000e+00 0.000000e+00 0.000000e+00 
    66.5                0.000000e+00 0.000000e+00 0.000000e+00 0.000000e+00 0.000000e+00 0.000000e+00 0.000000e+00 0.000000e+00 0.000000e+00 0.000000e+00 0.000000e+00 0.000000e+00 
    67.5                0.000000e+00 0.000000e+00 0.000000e+00 0.000000e+00 0.000000e+00 0.000000e+00 0.000000e+00 0.000000e+00 0.000000e+00 0.000000e+00 0.000000e+00 0.000000e+00 
    68.5                0.000000e+00 0.000000e+00 0.000000e+00 0.000000e+00 0.000000e+00 0.000000e+00 0.000000e+00 0.000000e+00 0.000000e+00 0.000000e+00 0.000000e+00 0.000000e+00 
    69.5                0.000000e+00 0.000000e+00 0.000000e+00 0.000000e+00 0.000000e+00 0.000000e+00 0.000000e+00 0.000000e+00 0.000000e+00 0.000000e+00 0.000000e+00 0.000000e+00 
    70.5                0.000000e+00 0.000000e+00 0.000000e+00 0.000000e+00 0.000000e+00 0.000000e+00 0.000000e+00 0.000000e+00 0.000000e+00 0.000000e+00 0.000000e+00 0.000000e+00 
    71.5                0.000000e+00 0.000000e+00 0.000000e+00 0.000000e+00 0.000000e+00 0.000000e+00 0.000000e+00 0.000000e+00 0.000000e+00 0.000000e+00 0.000000e+00 0.000000e+00 
    72.5                0.000000e+00 0.000000e+00 0.000000e+00 0.000000e+00 0.000000e+00 0.000000e+00 0.000000e+00 0.000000e+00 0.000000e+00 0.000000e+00 0.000000e+00 0.000000e+00 
    73.5                0.000000e+00 0.000000e+00 0.000000e+00 0.000000e+00 0.000000e+00 0.000000e+00 0.000000e+00 0.000000e+00 0.000000e+00 0.000000e+00 0.000000e+00 0.000000e+00 
    74.5                0.000000e+00 0.000000e+00 0.000000e+00 0.000000e+00 0.000000e+00 0.000000e+00 0.000000e+00 0.000000e+00 0.000000e+00 0.000000e+00 0.000000e+00 0.000000e+00 
    75.5                0.000000e+00 0.000000e+00 0.000000e+00 0.000000e+00 0.000000e+00 0.000000e+00 0.000000e+00 0.000000e+00 0.000000e+00 0.000000e+00 0.000000e+00 0.000000e+00 
    76.5                0.000000e+00 0.000000e+00 0.000000e+00 0.000000e+00 0.000000e+00 0.000000e+00 0.000000e+00 0.000000e+00 0.000000e+00 0.000000e+00 0.000000e+00 0.000000e+00 
    77.5                0.000000e+00 0.000000e+00 0.000000e+00 0.000000e+00 0.000000e+00 0.000000e+00 0.000000e+00 0.000000e+00 0.000000e+00 0.000000e+00 0.000000e+00 0.000000e+00 
    78.5                0.000000e+00 0.000000e+00 0.000000e+00 0.000000e+00 0.000000e+00 0.000000e+00 0.000000e+00 0.000000e+00 0.000000e+00 0.000000e+00 0.000000e+00 0.000000e+00 
    79.5                0.000000e+00 0.000000e+00 0.000000e+00 0.000000e+00 0.000000e+00 0.000000e+00 0.000000e+00 0.000000e+00 0.000000e+00 0.000000e+00 0.000000e+00 0.000000e+00 


