# 80 rows of flux data
# 12 columns of flux data
# 
# total cross-sectional flux  1.027868e+00 /m^2/yr
#
#                             +x ram      -x wake      +y port -y starboard    +z zenith     -z nadir        Earth          Sun     anti-Sun      rot (x)      rot (y)      rot (z) 
# average speed (km/s)         37.64        37.64        35.25        40.60        31.65        44.88        37.70        28.07        28.07        33.98        34.05        37.34 
# total flux (#/m2/yr)  2.321257e-01 2.321596e-01 3.216841e-01 1.620438e-01 6.062832e-01 1.796793e-04 2.315483e-01 1.651310e-01 1.651417e-01 8.532810e-01 8.322911e-01 7.443424e-01 
# velocity (km/s)
     0.5                0.000000e+00 0.000000e+00 0.000000e+00 0.000000e+00 0.000000e+00 0.000000e+00 0.000000e+00 0.000000e+00 0.000000e+00 0.000000e+00 0.000000e+00 0.000000e+00 
     1.5                0.000000e+00 0.000000e+00 0.000000e+00 0.000000e+00 0.000000e+00 0.000000e+00 0.000000e+00 0.000000e+00 0.000000e+00 0.000000e+00 0.000000e+00 0.000000e+00 
     2.5                8.960139e-05 8.998544e-05 3.478322e-05 1.164091e-04 1.678320e-04 5.808544e-08 8.949559e-05 8.734826e-05 8.737603e-05 2.516795e-04 2.715118e-04 2.602190e-04 
     3.5                4.522006e-04 4.522145e-04 3.476463e-04 4.736343e-04 7.732497e-04 4.684269e-07 4.499717e-04 4.537824e-04 4.536547e-04 1.264598e-03 1.315014e-03 1.353869e-03 
     4.5                9.143461e-04 9.142136e-04 9.053070e-04 8.294506e-04 1.615110e-03 1.068747e-06 9.096059e-04 9.675261e-04 9.674871e-04 2.657952e-03 2.702017e-03 2.795564e-03 
     5.5                1.403451e-03 1.403209e-03 1.548488e-03 1.187176e-03 2.663940e-03 1.729615e-06 1.395603e-03 1.559098e-03 1.559016e-03 4.275881e-03 4.289105e-03 4.348870e-03 
     6.5                1.883068e-03 1.882843e-03 2.297403e-03 1.476428e-03 3.948162e-03 2.180028e-06 1.872431e-03 2.156082e-03 2.156260e-03 6.096627e-03 6.053978e-03 5.918059e-03 
     7.5                2.326744e-03 2.325538e-03 3.007771e-03 1.734621e-03 5.351667e-03 2.494806e-06 2.312062e-03 2.718232e-03 2.718176e-03 7.972951e-03 7.853695e-03 7.373205e-03 
     8.5                2.732946e-03 2.732045e-03 3.708900e-03 1.981105e-03 6.735344e-03 2.756739e-06 2.716051e-03 3.256791e-03 3.256930e-03 9.791819e-03 9.591895e-03 8.758011e-03 
     9.5                3.063756e-03 3.062449e-03 4.299260e-03 2.104809e-03 8.073336e-03 2.916188e-06 3.043642e-03 3.714411e-03 3.714417e-03 1.141649e-02 1.117656e-02 9.835905e-03 
    10.5                3.372907e-03 3.372185e-03 4.861802e-03 2.285588e-03 9.428608e-03 3.012472e-06 3.350606e-03 4.168651e-03 4.168843e-03 1.307134e-02 1.274248e-02 1.090322e-02 
    11.5                3.673799e-03 3.672435e-03 5.507019e-03 2.364151e-03 1.099282e-02 3.039899e-06 3.648683e-03 4.614262e-03 4.614381e-03 1.487930e-02 1.449443e-02 1.194722e-02 
    12.5                3.900590e-03 3.899318e-03 5.984223e-03 2.436556e-03 1.218962e-02 2.999344e-06 3.873816e-03 4.935923e-03 4.935962e-03 1.626930e-02 1.579630e-02 1.273675e-02 
    13.5                3.978072e-03 3.976056e-03 6.406311e-03 2.411574e-03 1.321748e-02 2.982435e-06 3.951557e-03 5.063660e-03 5.063771e-03 1.736320e-02 1.680320e-02 1.317316e-02 
    14.5                4.009620e-03 4.007849e-03 6.389612e-03 2.419816e-03 1.386923e-02 2.855907e-06 3.982411e-03 5.125301e-03 5.125428e-03 1.793571e-02 1.741224e-02 1.321564e-02 
    15.5                4.123982e-03 4.122962e-03 6.819641e-03 2.387319e-03 1.497543e-02 2.797665e-06 4.097248e-03 5.247027e-03 5.247360e-03 1.910267e-02 1.850070e-02 1.370564e-02 
    16.5                4.120448e-03 4.119034e-03 6.849261e-03 2.378308e-03 1.529820e-02 2.653788e-06 4.093219e-03 5.262310e-03 5.262526e-03 1.937672e-02 1.876602e-02 1.372024e-02 
    17.5                4.152824e-03 4.152538e-03 6.997885e-03 2.339680e-03 1.574484e-02 2.508344e-06 4.127004e-03 5.243761e-03 5.244084e-03 1.982135e-02 1.918394e-02 1.385764e-02 
    18.5                4.167728e-03 4.166366e-03 7.051430e-03 2.309152e-03 1.624970e-02 2.358848e-06 4.140585e-03 5.202600e-03 5.202838e-03 2.025494e-02 1.961264e-02 1.389281e-02 
    19.5                4.168310e-03 4.167968e-03 7.052052e-03 2.226012e-03 1.637568e-02 2.171147e-06 4.142380e-03 5.090287e-03 5.090443e-03 2.028713e-02 1.968071e-02 1.383297e-02 
    20.5                4.064479e-03 4.063897e-03 6.966078e-03 2.156314e-03 1.618912e-02 1.988831e-06 4.039077e-03 4.906822e-03 4.907367e-03 2.000692e-02 1.934132e-02 1.354275e-02 
    21.5                4.043189e-03 4.042597e-03 6.874599e-03 2.144084e-03 1.635542e-02 1.842389e-06 4.018315e-03 4.781164e-03 4.781371e-03 2.005566e-02 1.943655e-02 1.343138e-02 
    22.5                4.061311e-03 4.061114e-03 7.032066e-03 2.034600e-03 1.658435e-02 1.703935e-06 4.038042e-03 4.660439e-03 4.660584e-03 2.027176e-02 1.962174e-02 1.349201e-02 
    23.5                3.844398e-03 3.844179e-03 6.691828e-03 1.951563e-03 1.570936e-02 1.544028e-06 3.822249e-03 4.368452e-03 4.369111e-03 1.921840e-02 1.855903e-02 1.282237e-02 
    24.5                3.700624e-03 3.700310e-03 6.314706e-03 1.866234e-03 1.509502e-02 1.400184e-06 3.678630e-03 4.105435e-03 4.105694e-03 1.838538e-02 1.780314e-02 1.223177e-02 
    25.5                3.603650e-03 3.604112e-03 6.198645e-03 1.805192e-03 1.474475e-02 1.272308e-06 3.583249e-03 3.886398e-03 3.886775e-03 1.793920e-02 1.734577e-02 1.193882e-02 
    26.5                3.520303e-03 3.520164e-03 5.915152e-03 1.755697e-03 1.423218e-02 1.171685e-06 3.499929e-03 3.673939e-03 3.674062e-03 1.727659e-02 1.675769e-02 1.154640e-02 
    27.5                3.421796e-03 3.421570e-03 5.789132e-03 1.663332e-03 1.364438e-02 1.014320e-06 3.402448e-03 3.466627e-03 3.466766e-03 1.659949e-02 1.606898e-02 1.122081e-02 
    28.5                3.298135e-03 3.298909e-03 5.534450e-03 1.617644e-03 1.307025e-02 8.808233e-07 3.281026e-03 3.219894e-03 3.220522e-03 1.589958e-02 1.538708e-02 1.078941e-02 
    29.5                3.128442e-03 3.128312e-03 5.322709e-03 1.474996e-03 1.234265e-02 7.420928e-07 3.112174e-03 2.915812e-03 2.916099e-03 1.502388e-02 1.451807e-02 1.024041e-02 
    30.5                2.948690e-03 2.948590e-03 4.961384e-03 1.413291e-03 1.180568e-02 6.349685e-07 2.933721e-03 2.699092e-03 2.699203e-03 1.427671e-02 1.381823e-02 9.631303e-03 
    31.5                2.913847e-03 2.913771e-03 4.801696e-03 1.417928e-03 1.146324e-02 5.227947e-07 2.899357e-03 2.540542e-03 2.540957e-03 1.386284e-02 1.343138e-02 9.456122e-03 
    32.5                2.809606e-03 2.810875e-03 4.632100e-03 1.391580e-03 1.075189e-02 4.698469e-07 2.797909e-03 2.336139e-03 2.336277e-03 1.309401e-02 1.266728e-02 9.139683e-03 
    33.5                2.790989e-03 2.791728e-03 4.431046e-03 1.414277e-03 1.042189e-02 4.438268e-07 2.779521e-03 2.161497e-03 2.161889e-03 1.269271e-02 1.232823e-02 8.970438e-03 
    34.5                2.832397e-03 2.831732e-03 4.520646e-03 1.411080e-03 1.048047e-02 3.721476e-07 2.820069e-03 2.073645e-03 2.073734e-03 1.276907e-02 1.239461e-02 9.099096e-03 
    35.5                2.719080e-03 2.721582e-03 4.299429e-03 1.404828e-03 9.644520e-03 3.080880e-07 2.710711e-03 1.939058e-03 1.939251e-03 1.188584e-02 1.152279e-02 8.750389e-03 
    36.5                2.718171e-03 2.718986e-03 4.136724e-03 1.425117e-03 9.441551e-03 2.556647e-07 2.708957e-03 1.810822e-03 1.811091e-03 1.163316e-02 1.133739e-02 8.636888e-03 
    37.5                2.786163e-03 2.787734e-03 4.298426e-03 1.505072e-03 9.528431e-03 2.147019e-07 2.779038e-03 1.754968e-03 1.755160e-03 1.183298e-02 1.147911e-02 8.933971e-03 
    38.5                2.859435e-03 2.861145e-03 4.143613e-03 1.669205e-03 9.379371e-03 1.685930e-07 2.852546e-03 1.686423e-03 1.686817e-03 1.169055e-02 1.143983e-02 9.053858e-03 
    39.5                2.948546e-03 2.951252e-03 4.388479e-03 1.605690e-03 9.215288e-03 1.334047e-07 2.943562e-03 1.637291e-03 1.637435e-03 1.169575e-02 1.141027e-02 9.331800e-03 
    40.5                2.926385e-03 2.926913e-03 4.287771e-03 1.697351e-03 9.072536e-03 1.479869e-07 2.919032e-03 1.570869e-03 1.570997e-03 1.156797e-02 1.124746e-02 9.300130e-03 
    41.5                3.116451e-03 3.117591e-03 4.302740e-03 1.993044e-03 9.170075e-03 3.080093e-07 3.110151e-03 1.556087e-03 1.556475e-03 1.182949e-02 1.157421e-02 9.840924e-03 
    42.5                3.235183e-03 3.235326e-03 4.552801e-03 1.979464e-03 8.839115e-03 4.258257e-07 3.228725e-03 1.548896e-03 1.548964e-03 1.173934e-02 1.147255e-02 1.020818e-02 
    43.5                3.198108e-03 3.200201e-03 4.347074e-03 2.138479e-03 8.486685e-03 4.851570e-07 3.194243e-03 1.497501e-03 1.497608e-03 1.140829e-02 1.114954e-02 1.011678e-02 
    44.5                3.490843e-03 3.491485e-03 4.501973e-03 2.337842e-03 8.881714e-03 3.747345e-07 3.485141e-03 1.542079e-03 1.542240e-03 1.196865e-02 1.186183e-02 1.085768e-02 
    45.5                3.623559e-03 3.627018e-03 4.906484e-03 2.420208e-03 8.823659e-03 4.063081e-07 3.622310e-03 1.550074e-03 1.550386e-03 1.229212e-02 1.199002e-02 1.144578e-02 
    46.5                3.674444e-03 3.672063e-03 4.804200e-03 2.553661e-03 8.624266e-03 5.715234e-07 3.667736e-03 1.525615e-03 1.525723e-03 1.216680e-02 1.190940e-02 1.155000e-02 
    47.5                3.836404e-03 3.839608e-03 4.890568e-03 2.855105e-03 8.586610e-03 1.069229e-06 3.835646e-03 1.549831e-03 1.549716e-03 1.242196e-02 1.215667e-02 1.210710e-02 
    48.5                4.110808e-03 4.109669e-03 4.907698e-03 3.177289e-03 8.623717e-03 1.201987e-06 4.105701e-03 1.591125e-03 1.591430e-03 1.270876e-02 1.261517e-02 1.281507e-02 
    49.5                4.457962e-03 4.458855e-03 5.317194e-03 3.574558e-03 8.904690e-03 1.554004e-06 4.456168e-03 1.650911e-03 1.650937e-03 1.355516e-02 1.336916e-02 1.397810e-02 
    50.5                4.995906e-03 5.000288e-03 5.636192e-03 4.326213e-03 9.326137e-03 2.449777e-06 4.997331e-03 1.747417e-03 1.747452e-03 1.470408e-02 1.450770e-02 1.568266e-02 
    51.5                5.709395e-03 5.713292e-03 6.300431e-03 4.975987e-03 9.598960e-03 3.587051e-06 5.712492e-03 1.844736e-03 1.845006e-03 1.599452e-02 1.588170e-02 1.783797e-02 
    52.5                6.070013e-03 6.068600e-03 6.886879e-03 5.259762e-03 9.244473e-03 5.233618e-06 6.071553e-03 1.901733e-03 1.901772e-03 1.654686e-02 1.628885e-02 1.907148e-02 
    53.5                6.160579e-03 6.161503e-03 6.832424e-03 5.583949e-03 8.832191e-03 6.824416e-06 6.166480e-03 1.920941e-03 1.921332e-03 1.654299e-02 1.620093e-02 1.943898e-02 
    54.5                6.057749e-03 6.061184e-03 6.808156e-03 5.315374e-03 8.235339e-03 7.695962e-06 6.066619e-03 1.901120e-03 1.900899e-03 1.591000e-02 1.565554e-02 1.905604e-02 
    55.5                5.947210e-03 5.951511e-03 6.583088e-03 5.456340e-03 7.893717e-03 8.172376e-06 5.956889e-03 1.883866e-03 1.884030e-03 1.561125e-02 1.526128e-02 1.879308e-02 
    56.5                5.837919e-03 5.839433e-03 6.373912e-03 5.238295e-03 7.464531e-03 8.051510e-06 5.845130e-03 1.844259e-03 1.844509e-03 1.497114e-02 1.479724e-02 1.827808e-02 
    57.5                5.428340e-03 5.431561e-03 6.028519e-03 4.838714e-03 6.701576e-03 7.852002e-06 5.438034e-03 1.740858e-03 1.740851e-03 1.380165e-02 1.360193e-02 1.705801e-02 
    58.5                5.076105e-03 5.074990e-03 5.440589e-03 4.664136e-03 6.110388e-03 7.661893e-06 5.080990e-03 1.605195e-03 1.605298e-03 1.274483e-02 1.261764e-02 1.590574e-02 
    59.5                4.860118e-03 4.860843e-03 5.173415e-03 4.544946e-03 5.633464e-03 7.896863e-06 4.866895e-03 1.481360e-03 1.481461e-03 1.212038e-02 1.194706e-02 1.526582e-02 
    60.5                4.558293e-03 4.565149e-03 4.994251e-03 4.265611e-03 5.022922e-03 7.785761e-06 4.572337e-03 1.326459e-03 1.326560e-03 1.133944e-02 1.106138e-02 1.443780e-02 
    61.5                4.136825e-03 4.139696e-03 4.468292e-03 3.801275e-03 4.256241e-03 7.848922e-06 4.146342e-03 1.164636e-03 1.164805e-03 1.000523e-02 9.857670e-03 1.299919e-02 
    62.5                3.526513e-03 3.523588e-03 4.015867e-03 3.141914e-03 3.416288e-03 7.328431e-06 3.531032e-03 9.916062e-04 9.914636e-04 8.509905e-03 8.296669e-03 1.114825e-02 
    63.5                2.878804e-03 2.883105e-03 3.192934e-03 2.624625e-03 2.695344e-03 6.341901e-06 2.889145e-03 8.108115e-04 8.109933e-04 6.875769e-03 6.725205e-03 9.085035e-03 
    64.5                2.341352e-03 2.341265e-03 2.633507e-03 2.130611e-03 2.110089e-03 5.239309e-06 2.346173e-03 6.416397e-04 6.416252e-04 5.574557e-03 5.423390e-03 7.415023e-03 
    65.5                1.854693e-03 1.854880e-03 2.056189e-03 1.677634e-03 1.572772e-03 4.280577e-06 1.859384e-03 4.841087e-04 4.841804e-04 4.324864e-03 4.240579e-03 5.840065e-03 
    66.5                1.400556e-03 1.400606e-03 1.605838e-03 1.221304e-03 1.099135e-03 3.682331e-06 1.404474e-03 3.434333e-04 3.434572e-04 3.230537e-03 3.158520e-03 4.414523e-03 
    67.5                9.655985e-04 9.658810e-04 1.139268e-03 8.347688e-04 6.896951e-04 2.794126e-06 9.688938e-04 2.207160e-04 2.207610e-04 2.216873e-03 2.143856e-03 3.063080e-03 
    68.5                6.103005e-04 6.107756e-04 7.338348e-04 5.050375e-04 3.783708e-04 2.006985e-06 6.129731e-04 1.235083e-04 1.235262e-04 1.367618e-03 1.328423e-03 1.927551e-03 
    69.5                3.310152e-04 3.306783e-04 4.213970e-04 2.443932e-04 1.657226e-04 1.287998e-06 3.322471e-04 5.672573e-05 5.673317e-05 7.187927e-04 7.034791e-04 1.036550e-03 
    70.5                1.303466e-04 1.301708e-04 1.761577e-04 6.663917e-05 4.622956e-05 7.022074e-07 1.308196e-04 1.812251e-05 1.811947e-05 2.568201e-04 2.697347e-04 3.916488e-04 
    71.5                2.820025e-05 2.800702e-05 4.052937e-05 9.527159e-06 6.289202e-06 2.469433e-07 2.817789e-05 3.138997e-06 3.138514e-06 5.171307e-05 5.715181e-05 8.224253e-05 
    72.5                2.124461e-06 2.077128e-06 2.205321e-06 2.121375e-07 1.780327e-07 2.648349e-08 2.085367e-06 1.467226e-07 1.465212e-07 2.462040e-06 4.210886e-06 5.182784e-06 
    73.5                3.148631e-10 7.357576e-11 2.305891e-10 0.000000e+00 0.000000e+00 9.027694e-12 7.070519e-11 7.610105e-12 3.762732e-12 2.307789e-10 3.885539e-10 4.549324e-10 
    74.5                0.000000e+00 0.000000e+00 0.000000e+00 0.000000e+00 0.000000e+00 0.000000e+00 0.000000e+00 0.000000e+00 0.000000e+00 0.000000e+00 0.000000e+00 0.000000e+00 
    75.5                0.000000e+00 0.000000e+00 0.000000e+00 0.000000e+00 0.000000e+00 0.000000e+00 0.000000e+00 0.000000e+00 0.000000e+00 0.000000e+00 0.000000e+00 0.000000e+00 
    76.5                0.000000e+00 0.000000e+00 0.000000e+00 0.000000e+00 0.000000e+00 0.000000e+00 0.000000e+00 0.000000e+00 0.000000e+00 0.000000e+00 0.000000e+00 0.000000e+00 
    77.5                0.000000e+00 0.000000e+00 0.000000e+00 0.000000e+00 0.000000e+00 0.000000e+00 0.000000e+00 0.000000e+00 0.000000e+00 0.000000e+00 0.000000e+00 0.000000e+00 
    78.5                0.000000e+00 0.000000e+00 0.000000e+00 0.000000e+00 0.000000e+00 0.000000e+00 0.000000e+00 0.000000e+00 0.000000e+00 0.000000e+00 0.000000e+00 0.000000e+00 
    79.5                0.000000e+00 0.000000e+00 0.000000e+00 0.000000e+00 0.000000e+00 0.000000e+00 0.000000e+00 0.000000e+00 0.000000e+00 0.000000e+00 0.000000e+00 0.000000e+00 


