# 80 rows of flux data
# 12 columns of flux data
# 
# total cross-sectional flux  2.154450e+00 /m^2/yr
#
#                             +x ram      -x wake      +y port -y starboard    +z zenith     -z nadir        Earth          Sun     anti-Sun      rot (x)      rot (y)      rot (z) 
# average speed (km/s)         24.67        23.83        18.47        22.34        24.26        23.66        22.47        24.68        24.68        23.63        24.27        23.74 
# total flux (#/m2/yr)  7.166810e-01 6.113482e-01 1.449405e-01 3.422843e-01 1.271307e+00 5.009544e-04 5.914424e-03 9.480807e-01 9.345442e-01 1.445211e+00 2.049319e+00 1.505233e+00 
# velocity (km/s)
     0.5                0.000000e+00 0.000000e+00 0.000000e+00 0.000000e+00 0.000000e+00 0.000000e+00 0.000000e+00 0.000000e+00 0.000000e+00 0.000000e+00 0.000000e+00 0.000000e+00 
     1.5                0.000000e+00 0.000000e+00 0.000000e+00 0.000000e+00 0.000000e+00 0.000000e+00 0.000000e+00 0.000000e+00 0.000000e+00 0.000000e+00 0.000000e+00 0.000000e+00 
     2.5                0.000000e+00 5.093349e-06 3.852659e-07 4.243826e-07 2.437434e-06 1.505855e-09 1.831653e-08 2.148640e-06 1.292576e-07 2.753087e-06 5.885526e-06 5.218418e-06 
     3.5                3.145933e-06 1.179996e-04 1.795143e-05 2.782742e-05 1.029049e-04 4.243422e-08 6.050025e-07 5.806687e-05 2.104407e-05 1.218334e-04 1.769156e-04 1.358722e-04 
     4.5                1.194682e-04 5.418507e-04 1.213618e-04 1.895355e-04 6.039096e-04 2.536818e-07 3.381257e-06 2.961374e-04 1.675764e-04 7.366259e-04 9.973158e-04 7.789386e-04 
     5.5                5.672211e-04 1.471502e-03 4.582989e-04 7.011719e-04 2.035328e-03 7.873945e-07 1.110690e-05 9.666798e-04 7.128903e-04 2.542813e-03 3.214661e-03 2.530103e-03 
     6.5                1.901170e-03 2.760359e-03 1.078186e-03 1.637483e-03 4.549290e-03 1.851058e-06 2.516548e-05 2.183545e-03 1.836033e-03 5.747413e-03 7.262742e-03 5.827648e-03 
     7.5                3.556096e-03 4.902621e-03 2.053695e-03 3.038127e-03 8.106772e-03 3.501390e-06 4.828277e-05 3.958318e-03 3.632532e-03 1.042255e-02 1.306197e-02 1.068636e-02 
     8.5                6.018665e-03 7.291617e-03 3.207930e-03 4.838639e-03 1.301062e-02 5.469128e-06 7.462624e-05 6.349311e-03 6.208228e-03 1.662918e-02 2.075126e-02 1.680700e-02 
     9.5                9.195166e-03 9.287564e-03 4.552384e-03 6.830092e-03 1.815267e-02 7.654361e-06 1.058368e-04 9.287970e-03 9.289950e-03 2.329517e-02 2.888801e-02 2.350046e-02 
    10.5                1.244058e-02 1.129907e-02 6.045877e-03 8.821492e-03 2.268951e-02 1.018132e-05 1.425173e-04 1.272325e-02 1.269972e-02 2.956338e-02 3.661309e-02 3.037332e-02 
    11.5                1.468554e-02 1.296540e-02 7.270750e-03 1.047798e-02 2.672311e-02 1.201059e-05 1.743084e-04 1.613631e-02 1.604019e-02 3.504788e-02 4.288236e-02 3.575497e-02 
    12.5                1.686299e-02 1.422662e-02 8.081077e-03 1.158231e-02 2.966611e-02 1.380563e-05 2.031545e-04 1.918323e-02 1.905230e-02 3.898341e-02 4.791966e-02 4.005004e-02 
    13.5                1.814177e-02 1.615048e-02 8.595093e-03 1.249008e-02 3.261180e-02 1.516711e-05 2.242038e-04 2.213536e-02 2.196722e-02 4.255761e-02 5.275331e-02 4.386744e-02 
    14.5                1.978853e-02 1.782230e-02 8.803904e-03 1.326052e-02 3.605127e-02 1.637515e-05 2.386763e-04 2.527252e-02 2.504672e-02 4.621861e-02 5.808699e-02 4.745586e-02 
    15.5                2.149560e-02 1.936200e-02 8.701098e-03 1.374574e-02 3.919699e-02 1.744474e-05 2.484573e-04 2.825263e-02 2.798035e-02 4.922408e-02 6.313299e-02 5.057532e-02 
    16.5                2.332126e-02 2.074492e-02 8.543854e-03 1.421170e-02 4.220447e-02 1.839281e-05 2.541277e-04 3.106059e-02 3.073935e-02 5.205509e-02 6.801994e-02 5.366219e-02 
    17.5                2.465079e-02 2.208083e-02 8.173295e-03 1.442004e-02 4.468340e-02 1.901019e-05 2.540963e-04 3.356982e-02 3.320713e-02 5.411168e-02 7.207868e-02 5.590720e-02 
    18.5                2.585374e-02 2.304858e-02 7.682042e-03 1.447070e-02 4.693327e-02 1.939357e-05 2.519856e-04 3.577823e-02 3.538723e-02 5.577419e-02 7.556320e-02 5.757133e-02 
    19.5                2.701490e-02 2.377256e-02 7.294583e-03 1.450553e-02 4.861911e-02 1.980637e-05 2.507625e-04 3.755944e-02 3.714068e-02 5.701966e-02 7.837541e-02 5.906988e-02 
    20.5                2.762133e-02 2.443317e-02 6.791760e-03 1.432151e-02 4.974546e-02 2.005723e-05 2.485327e-04 3.879703e-02 3.835147e-02 5.759336e-02 8.026165e-02 5.981672e-02 
    21.5                2.806985e-02 2.543453e-02 6.217728e-03 1.420509e-02 5.117661e-02 2.012135e-05 2.397387e-04 4.014999e-02 3.966323e-02 5.840995e-02 8.252957e-02 6.070490e-02 
    22.5                2.895581e-02 2.605361e-02 5.879216e-03 1.420813e-02 5.280980e-02 2.040412e-05 2.400343e-04 4.154874e-02 4.102422e-02 5.967834e-02 8.500295e-02 6.193911e-02 
    23.5                2.971884e-02 2.628989e-02 5.344842e-03 1.398477e-02 5.364809e-02 2.054615e-05 2.346179e-04 4.235164e-02 4.179842e-02 5.995405e-02 8.644712e-02 6.241214e-02 
    24.5                2.987944e-02 2.641958e-02 4.834709e-03 1.363596e-02 5.389218e-02 2.046905e-05 2.287437e-04 4.260040e-02 4.201939e-02 5.966750e-02 8.686964e-02 6.221918e-02 
    25.5                2.992583e-02 2.629720e-02 4.278244e-03 1.319634e-02 5.388094e-02 2.019691e-05 2.205778e-04 4.254829e-02 4.194273e-02 5.908063e-02 8.679954e-02 6.164172e-02 
    26.5                2.979109e-02 2.563299e-02 3.767290e-03 1.263550e-02 5.314098e-02 1.975856e-05 2.127110e-04 4.191682e-02 4.130410e-02 5.781583e-02 8.558769e-02 6.036463e-02 
    27.5                2.917476e-02 2.498187e-02 3.275587e-03 1.197837e-02 5.174296e-02 1.926568e-05 2.038207e-04 4.081264e-02 4.020213e-02 5.590470e-02 8.348572e-02 5.863006e-02 
    28.5                2.823343e-02 2.413813e-02 2.835922e-03 1.132256e-02 5.018243e-02 1.849213e-05 1.934692e-04 3.941767e-02 3.881153e-02 5.388673e-02 8.084497e-02 5.643152e-02 
    29.5                2.735316e-02 2.301506e-02 2.414151e-03 1.061760e-02 4.822311e-02 1.771412e-05 1.827976e-04 3.777023e-02 3.717323e-02 5.147321e-02 7.771850e-02 5.401813e-02 
    30.5                2.609966e-02 2.176466e-02 2.016383e-03 9.844390e-03 4.580798e-02 1.676829e-05 1.712464e-04 3.574173e-02 3.516682e-02 4.863219e-02 7.384288e-02 5.110816e-02 
    31.5                2.470671e-02 2.030179e-02 1.635855e-03 9.031012e-03 4.307752e-02 1.570623e-05 1.582973e-04 3.344223e-02 3.289313e-02 4.548276e-02 6.944008e-02 4.786038e-02 
    32.5                2.310890e-02 1.861513e-02 1.306490e-03 8.189993e-03 3.995197e-02 1.449924e-05 1.445830e-04 3.081852e-02 3.030495e-02 4.198380e-02 6.438691e-02 4.421256e-02 
    33.5                2.132773e-02 1.671929e-02 1.030692e-03 7.319184e-03 3.638909e-02 1.320756e-05 1.303043e-04 2.789602e-02 2.742507e-02 3.808924e-02 5.867877e-02 4.020059e-02 
    34.5                1.926273e-02 1.482491e-02 7.974759e-04 6.440245e-03 3.257372e-02 1.183421e-05 1.156666e-04 2.480595e-02 2.438334e-02 3.397803e-02 5.255000e-02 3.592978e-02 
    35.5                1.715978e-02 1.293867e-02 5.977940e-04 5.585497e-03 2.872612e-02 1.045323e-05 1.011155e-04 2.172438e-02 2.135064e-02 2.986302e-02 4.637305e-02 3.164840e-02 
    36.5                1.503217e-02 1.110835e-02 4.285094e-04 4.771786e-03 2.495568e-02 9.043305e-06 8.650486e-05 1.871067e-02 1.838597e-02 2.585302e-02 4.027896e-02 2.742460e-02 
    37.5                1.299480e-02 9.334044e-03 3.000612e-04 4.013789e-03 2.129731e-02 7.714744e-06 7.293821e-05 1.582934e-02 1.555478e-02 2.199693e-02 3.438913e-02 2.338023e-02 
    38.5                1.099824e-02 7.586245e-03 2.017928e-04 3.299872e-03 1.773651e-02 6.405078e-06 6.006107e-05 1.305473e-02 1.282893e-02 1.826915e-02 2.863181e-02 1.942909e-02 
    39.5                9.086767e-03 5.896713e-03 1.304601e-04 2.626271e-03 1.426846e-02 5.175621e-06 4.807035e-05 1.040493e-02 1.022662e-02 1.466226e-02 2.305846e-02 1.564033e-02 
    40.5                7.201989e-03 4.358046e-03 7.960572e-05 2.000503e-03 1.096983e-02 3.999243e-06 3.695033e-05 7.926704e-03 7.793352e-03 1.124933e-02 1.776077e-02 1.205054e-02 
    41.5                5.448944e-03 3.074411e-03 4.609553e-05 1.454321e-03 8.034853e-03 2.970590e-06 2.714673e-05 5.760963e-03 5.666309e-03 8.224940e-03 1.305358e-02 8.873078e-03 
    42.5                3.914619e-03 2.052094e-03 2.521833e-05 1.009236e-03 5.610245e-03 2.080282e-06 1.886080e-05 3.982196e-03 3.918636e-03 5.734171e-03 9.127220e-03 6.206002e-03 
    43.5                2.692123e-03 1.228713e-03 1.291263e-05 6.570435e-04 3.670481e-03 1.369194e-06 1.230502e-05 2.580074e-03 2.541270e-03 3.746840e-03 5.985217e-03 4.074756e-03 
    44.5                1.709241e-03 6.389039e-04 6.128102e-06 3.849807e-04 2.158452e-03 8.284632e-07 7.449462e-06 1.512739e-03 1.492678e-03 2.201313e-03 3.553225e-03 2.436514e-03 
    45.5                9.544484e-04 2.647303e-04 2.544183e-06 1.943315e-04 1.092671e-03 4.392694e-07 3.966998e-06 7.665835e-04 7.580893e-04 1.113580e-03 1.822900e-03 1.262716e-03 
    46.5                4.457405e-04 7.760978e-05 9.170002e-07 7.839843e-05 4.416596e-04 1.979348e-07 1.797826e-06 3.160407e-04 3.138273e-04 4.499520e-04 7.611361e-04 5.400810e-04 
    47.5                1.537280e-04 1.514560e-05 2.692141e-07 2.303734e-05 1.298981e-04 6.832536e-08 6.278884e-07 9.665730e-05 9.664120e-05 1.323328e-04 2.359840e-04 1.734481e-04 
    48.5                3.715534e-05 1.356531e-06 5.390777e-08 4.634651e-06 2.617249e-05 1.719944e-08 1.517764e-07 2.065328e-05 2.080672e-05 2.666431e-05 5.112776e-05 3.931582e-05 
    49.5                5.175026e-06 1.187201e-08 7.153333e-09 5.002582e-07 2.824743e-06 2.525100e-09 2.257772e-08 2.525187e-06 2.574377e-06 2.879884e-06 6.333325e-06 5.246380e-06 
    50.5                1.501910e-07 0.000000e+00 2.309848e-10 9.642709e-09 5.428016e-08 9.712046e-11 7.756873e-10 6.471250e-08 6.676718e-08 5.549147e-08 1.642742e-07 1.507042e-07 
    51.5                0.000000e+00 0.000000e+00 0.000000e+00 0.000000e+00 0.000000e+00 0.000000e+00 0.000000e+00 0.000000e+00 0.000000e+00 0.000000e+00 0.000000e+00 0.000000e+00 
    52.5                0.000000e+00 0.000000e+00 0.000000e+00 0.000000e+00 0.000000e+00 0.000000e+00 0.000000e+00 0.000000e+00 0.000000e+00 0.000000e+00 0.000000e+00 0.000000e+00 
    53.5                0.000000e+00 0.000000e+00 0.000000e+00 0.000000e+00 0.000000e+00 0.000000e+00 0.000000e+00 0.000000e+00 0.000000e+00 0.000000e+00 0.000000e+00 0.000000e+00 
    54.5                0.000000e+00 0.000000e+00 0.000000e+00 0.000000e+00 0.000000e+00 0.000000e+00 0.000000e+00 0.000000e+00 0.000000e+00 0.000000e+00 0.000000e+00 0.000000e+00 
    55.5                0.000000e+00 0.000000e+00 0.000000e+00 0.000000e+00 0.000000e+00 0.000000e+00 0.000000e+00 0.000000e+00 0.000000e+00 0.000000e+00 0.000000e+00 0.000000e+00 
    56.5                0.000000e+00 0.000000e+00 0.000000e+00 0.000000e+00 0.000000e+00 0.000000e+00 0.000000e+00 0.000000e+00 0.000000e+00 0.000000e+00 0.000000e+00 0.000000e+00 
    57.5                0.000000e+00 0.000000e+00 0.000000e+00 0.000000e+00 0.000000e+00 0.000000e+00 0.000000e+00 0.000000e+00 0.000000e+00 0.000000e+00 0.000000e+00 0.000000e+00 
    58.5                0.000000e+00 0.000000e+00 0.000000e+00 0.000000e+00 0.000000e+00 0.000000e+00 0.000000e+00 0.000000e+00 0.000000e+00 0.000000e+00 0.000000e+00 0.000000e+00 
    59.5                0.000000e+00 0.000000e+00 0.000000e+00 0.000000e+00 0.000000e+00 0.000000e+00 0.000000e+00 0.000000e+00 0.000000e+00 0.000000e+00 0.000000e+00 0.000000e+00 
    60.5                0.000000e+00 0.000000e+00 0.000000e+00 0.000000e+00 0.000000e+00 0.000000e+00 0.000000e+00 0.000000e+00 0.000000e+00 0.000000e+00 0.000000e+00 0.000000e+00 
    61.5                0.000000e+00 0.000000e+00 0.000000e+00 0.000000e+00 0.000000e+00 0.000000e+00 0.000000e+00 0.000000e+00 0.000000e+00 0.000000e+00 0.000000e+00 0.000000e+00 
    62.5                0.000000e+00 0.000000e+00 0.000000e+00 0.000000e+00 0.000000e+00 0.000000e+00 0.000000e+00 0.000000e+00 0.000000e+00 0.000000e+00 0.000000e+00 0.000000e+00 
    63.5                0.000000e+00 0.000000e+00 0.000000e+00 0.000000e+00 0.000000e+00 0.000000e+00 0.000000e+00 0.000000e+00 0.000000e+00 0.000000e+00 0.000000e+00 0.000000e+00 
    64.5                0.000000e+00 0.000000e+00 0.000000e+00 0.000000e+00 0.000000e+00 0.000000e+00 0.000000e+00 0.000000e+00 0.000000e+00 0.000000e+00 0.000000e+00 0.000000e+00 
    65.5                0.000000e+00 0.000000e+00 0.000000e+00 0.000000e+00 0.000000e+00 0.000000e+00 0.000000e+00 0.000000e+00 0.000000e+00 0.000000e+00 0.000000e+00 0.000000e+00 
    66.5                0.000000e+00 0.000000e+00 0.000000e+00 0.000000e+00 0.000000e+00 0.000000e+00 0.000000e+00 0.000000e+00 0.000000e+00 0.000000e+00 0.000000e+00 0.000000e+00 
    67.5                0.000000e+00 0.000000e+00 0.000000e+00 0.000000e+00 0.000000e+00 0.000000e+00 0.000000e+00 0.000000e+00 0.000000e+00 0.000000e+00 0.000000e+00 0.000000e+00 
    68.5                0.000000e+00 0.000000e+00 0.000000e+00 0.000000e+00 0.000000e+00 0.000000e+00 0.000000e+00 0.000000e+00 0.000000e+00 0.000000e+00 0.000000e+00 0.000000e+00 
    69.5                0.000000e+00 0.000000e+00 0.000000e+00 0.000000e+00 0.000000e+00 0.000000e+00 0.000000e+00 0.000000e+00 0.000000e+00 0.000000e+00 0.000000e+00 0.000000e+00 
    70.5                0.000000e+00 0.000000e+00 0.000000e+00 0.000000e+00 0.000000e+00 0.000000e+00 0.000000e+00 0.000000e+00 0.000000e+00 0.000000e+00 0.000000e+00 0.000000e+00 
    71.5                0.000000e+00 0.000000e+00 0.000000e+00 0.000000e+00 0.000000e+00 0.000000e+00 0.000000e+00 0.000000e+00 0.000000e+00 0.000000e+00 0.000000e+00 0.000000e+00 
    72.5                0.000000e+00 0.000000e+00 0.000000e+00 0.000000e+00 0.000000e+00 0.000000e+00 0.000000e+00 0.000000e+00 0.000000e+00 0.000000e+00 0.000000e+00 0.000000e+00 
    73.5                0.000000e+00 0.000000e+00 0.000000e+00 0.000000e+00 0.000000e+00 0.000000e+00 0.000000e+00 0.000000e+00 0.000000e+00 0.000000e+00 0.000000e+00 0.000000e+00 
    74.5                0.000000e+00 0.000000e+00 0.000000e+00 0.000000e+00 0.000000e+00 0.000000e+00 0.000000e+00 0.000000e+00 0.000000e+00 0.000000e+00 0.000000e+00 0.000000e+00 
    75.5                0.000000e+00 0.000000e+00 0.000000e+00 0.000000e+00 0.000000e+00 0.000000e+00 0.000000e+00 0.000000e+00 0.000000e+00 0.000000e+00 0.000000e+00 0.000000e+00 
    76.5                0.000000e+00 0.000000e+00 0.000000e+00 0.000000e+00 0.000000e+00 0.000000e+00 0.000000e+00 0.000000e+00 0.000000e+00 0.000000e+00 0.000000e+00 0.000000e+00 
    77.5                0.000000e+00 0.000000e+00 0.000000e+00 0.000000e+00 0.000000e+00 0.000000e+00 0.000000e+00 0.000000e+00 0.000000e+00 0.000000e+00 0.000000e+00 0.000000e+00 
    78.5                0.000000e+00 0.000000e+00 0.000000e+00 0.000000e+00 0.000000e+00 0.000000e+00 0.000000e+00 0.000000e+00 0.000000e+00 0.000000e+00 0.000000e+00 0.000000e+00 
    79.5                0.000000e+00 0.000000e+00 0.000000e+00 0.000000e+00 0.000000e+00 0.000000e+00 0.000000e+00 0.000000e+00 0.000000e+00 0.000000e+00 0.000000e+00 0.000000e+00 


