# 80 rows of flux data
# 12 columns of flux data
# 
# total cross-sectional flux  2.333519e+00 /m^2/yr
#
#                             +x ram      -x wake      +y port -y starboard    +z zenith     -z nadir        Earth          Sun     anti-Sun      rot (x)      rot (y)      rot (z) 
# average speed (km/s)         24.50        24.50        18.30        25.49        23.32        24.18        24.50        24.96        24.96        23.95        24.20        24.48 
# total flux (#/m2/yr)  7.122711e-01 7.119135e-01 1.898952e-01 1.117587e+00 7.252439e-01 1.168075e-03 7.064778e-01 1.019988e+00 1.020239e+00 1.579323e+00 1.739484e+00 2.147984e+00 
# velocity (km/s)
     0.5                0.000000e+00 0.000000e+00 0.000000e+00 0.000000e+00 0.000000e+00 0.000000e+00 0.000000e+00 0.000000e+00 0.000000e+00 0.000000e+00 0.000000e+00 0.000000e+00 
     1.5                0.000000e+00 0.000000e+00 0.000000e+00 0.000000e+00 0.000000e+00 0.000000e+00 0.000000e+00 0.000000e+00 0.000000e+00 0.000000e+00 0.000000e+00 0.000000e+00 
     2.5                1.265119e-06 1.256534e-06 5.399207e-06 0.000000e+00 8.067687e-07 2.018306e-09 1.271163e-06 9.149882e-07 8.971418e-07 5.487624e-06 2.756725e-06 6.207933e-06 
     3.5                5.828480e-05 5.835607e-05 8.777303e-05 6.221205e-06 3.401844e-05 1.280678e-07 5.813198e-05 3.522976e-05 3.517711e-05 1.065222e-04 1.260762e-04 1.665687e-04 
     4.5                3.176246e-04 3.182525e-04 3.639709e-04 1.830385e-04 2.755814e-04 5.327074e-07 3.166283e-04 2.026934e-04 2.026915e-04 6.550119e-04 7.353725e-04 9.300513e-04 
     5.5                1.066903e-03 1.069282e-03 1.049452e-03 8.035411e-04 1.078053e-03 1.727518e-06 1.063807e-03 7.673682e-04 7.669944e-04 2.318088e-03 2.565665e-03 3.135204e-03 
     6.5                2.448295e-03 2.449967e-03 1.942487e-03 2.560272e-03 2.879968e-03 3.682141e-06 2.440812e-03 2.001832e-03 2.001786e-03 5.810799e-03 6.152484e-03 7.383614e-03 
     7.5                4.275910e-03 4.278696e-03 3.402294e-03 4.630214e-03 5.274077e-03 6.839509e-06 4.261833e-03 3.774982e-03 3.774941e-03 1.048157e-02 1.094383e-02 1.302848e-02 
     8.5                6.965865e-03 6.966129e-03 5.144026e-03 7.699984e-03 8.524282e-03 1.107103e-05 6.941383e-03 6.335186e-03 6.335809e-03 1.687803e-02 1.780101e-02 2.103000e-02 
     9.5                9.973794e-03 9.975246e-03 6.799470e-03 1.194501e-02 1.260782e-02 1.521738e-05 9.936058e-03 9.586678e-03 9.587376e-03 2.466110e-02 2.572094e-02 3.037948e-02 
    10.5                1.242863e-02 1.242485e-02 8.180515e-03 1.588775e-02 1.676486e-02 1.929064e-05 1.237299e-02 1.324932e-02 1.325116e-02 3.209362e-02 3.280533e-02 3.843450e-02 
    11.5                1.455778e-02 1.455508e-02 9.284180e-03 1.828608e-02 1.998797e-02 2.195859e-05 1.447725e-02 1.693734e-02 1.693863e-02 3.739240e-02 3.874249e-02 4.452864e-02 
    12.5                1.624745e-02 1.624436e-02 9.831400e-03 2.114228e-02 2.248228e-02 2.512669e-05 1.614601e-02 2.024771e-02 2.025280e-02 4.201563e-02 4.348096e-02 4.986541e-02 
    13.5                1.766905e-02 1.766289e-02 1.048090e-02 2.305375e-02 2.399793e-02 2.810926e-05 1.754603e-02 2.309861e-02 2.310181e-02 4.529802e-02 4.705375e-02 5.409782e-02 
    14.5                1.956908e-02 1.956438e-02 1.075411e-02 2.567179e-02 2.543107e-02 3.200576e-05 1.942241e-02 2.635511e-02 2.635826e-02 4.873855e-02 5.139410e-02 5.935557e-02 
    15.5                2.130458e-02 2.130044e-02 1.079244e-02 2.880055e-02 2.647654e-02 3.594431e-05 2.113811e-02 2.945810e-02 2.946394e-02 5.199094e-02 5.517040e-02 6.459631e-02 
    16.5                2.305274e-02 2.304417e-02 1.064207e-02 3.220070e-02 2.767525e-02 3.932962e-05 2.286531e-02 3.256528e-02 3.257099e-02 5.543578e-02 5.903178e-02 6.987152e-02 
    17.5                2.445947e-02 2.445286e-02 1.036734e-02 3.483871e-02 2.817027e-02 4.244164e-05 2.425398e-02 3.515441e-02 3.516186e-02 5.765002e-02 6.186502e-02 7.394313e-02 
    18.5                2.579373e-02 2.578575e-02 9.993378e-03 3.748877e-02 2.847877e-02 4.496182e-05 2.557130e-02 3.766551e-02 3.767235e-02 5.961343e-02 6.440776e-02 7.784479e-02 
    19.5                2.685955e-02 2.684846e-02 9.574010e-03 3.996548e-02 2.890331e-02 4.700309e-05 2.662228e-02 3.981456e-02 3.982324e-02 6.147650e-02 6.655921e-02 8.112425e-02 
    20.5                2.740876e-02 2.739730e-02 8.843508e-03 4.150329e-02 2.874754e-02 4.853965e-05 2.716317e-02 4.103642e-02 4.104624e-02 6.191367e-02 6.746566e-02 8.265193e-02 
    21.5                2.815216e-02 2.814173e-02 8.397066e-03 4.299338e-02 2.844991e-02 5.010387e-05 2.789792e-02 4.226553e-02 4.227566e-02 6.243067e-02 6.858550e-02 8.464529e-02 
    22.5                2.915026e-02 2.913695e-02 7.927642e-03 4.496608e-02 2.879107e-02 5.174624e-05 2.888516e-02 4.387523e-02 4.388645e-02 6.378624e-02 7.060424e-02 8.739917e-02 
    23.5                2.973789e-02 2.972580e-02 7.214474e-03 4.683383e-02 2.879565e-02 5.264354e-05 2.946671e-02 4.498438e-02 4.499519e-02 6.459731e-02 7.165172e-02 8.922625e-02 
    24.5                2.989071e-02 2.987726e-02 6.477462e-03 4.772271e-02 2.838007e-02 5.278217e-05 2.961768e-02 4.525414e-02 4.526538e-02 6.429184e-02 7.168059e-02 8.960453e-02 
    25.5                2.993950e-02 2.992535e-02 5.688601e-03 4.842509e-02 2.788723e-02 5.227417e-05 2.966755e-02 4.526291e-02 4.527406e-02 6.373124e-02 7.146859e-02 8.962445e-02 
    26.5                2.975188e-02 2.973691e-02 4.988156e-03 4.883044e-02 2.729672e-02 5.112561e-05 2.948295e-02 4.498016e-02 4.499111e-02 6.291794e-02 7.076930e-02 8.910248e-02 
    27.5                2.899298e-02 2.897667e-02 4.260276e-03 4.827169e-02 2.636353e-02 4.904432e-05 2.873272e-02 4.382727e-02 4.384127e-02 6.107279e-02 6.882350e-02 8.691012e-02 
    28.5                2.817576e-02 2.816020e-02 3.690192e-03 4.713667e-02 2.522510e-02 4.716696e-05 2.792485e-02 4.240526e-02 4.241577e-02 5.877393e-02 6.665632e-02 8.429309e-02 
    29.5                2.720348e-02 2.718740e-02 3.065115e-03 4.603103e-02 2.417018e-02 4.470788e-05 2.696396e-02 4.083998e-02 4.085174e-02 5.650686e-02 6.423789e-02 8.140681e-02 
    30.5                2.589574e-02 2.588017e-02 2.509470e-03 4.424870e-02 2.282632e-02 4.195182e-05 2.567065e-02 3.876219e-02 3.877221e-02 5.357567e-02 6.105232e-02 7.752972e-02 
    31.5                2.446122e-02 2.444449e-02 2.000001e-03 4.219703e-02 2.140557e-02 3.879181e-05 2.425097e-02 3.647067e-02 3.648209e-02 5.040746e-02 5.757379e-02 7.327105e-02 
    32.5                2.283348e-02 2.281859e-02 1.590551e-03 3.969255e-02 1.985965e-02 3.552676e-05 2.264023e-02 3.387430e-02 3.388435e-02 4.688101e-02 5.367147e-02 6.842862e-02 
    33.5                2.097605e-02 2.095893e-02 1.259205e-03 3.680398e-02 1.821367e-02 3.192117e-05 2.080154e-02 3.096509e-02 3.097440e-02 4.306871e-02 4.927704e-02 6.296936e-02 
    34.5                1.885710e-02 1.884272e-02 9.741815e-04 3.334714e-02 1.636415e-02 2.822555e-05 1.870364e-02 2.769071e-02 2.769858e-02 3.872711e-02 4.429315e-02 5.669712e-02 
    35.5                1.673343e-02 1.671869e-02 7.245006e-04 2.980614e-02 1.450245e-02 2.461015e-05 1.659965e-02 2.443468e-02 2.444372e-02 3.435048e-02 3.929015e-02 5.037582e-02 
    36.5                1.461204e-02 1.459958e-02 5.258030e-04 2.618759e-02 1.264303e-02 2.117852e-05 1.449800e-02 2.119170e-02 2.119690e-02 2.996744e-02 3.429439e-02 4.404222e-02 
    37.5                1.258066e-02 1.256864e-02 3.763195e-04 2.269326e-02 1.088598e-02 1.789254e-05 1.248470e-02 1.811073e-02 1.811704e-02 2.581155e-02 2.952140e-02 3.797533e-02 
    38.5                1.059103e-02 1.057937e-02 2.623771e-04 1.924129e-02 9.180806e-03 1.480948e-05 1.051212e-02 1.514374e-02 1.514888e-02 2.177243e-02 2.485798e-02 3.203685e-02 
    39.5                8.660643e-03 8.651046e-03 1.740133e-04 1.591906e-02 7.559536e-03 1.181251e-05 8.598037e-03 1.231682e-02 1.232096e-02 1.792719e-02 2.035293e-02 2.630716e-02 
    40.5                6.779826e-03 6.770723e-03 1.103801e-04 1.262854e-02 5.974726e-03 9.003160e-06 6.732310e-03 9.590345e-03 9.593717e-03 1.416503e-02 1.596167e-02 2.070122e-02 
    41.5                5.053673e-03 5.046752e-03 6.621428e-05 9.558905e-03 4.509149e-03 6.516414e-06 5.019478e-03 7.119336e-03 7.122006e-03 1.068620e-02 1.192761e-02 1.552918e-02 
    42.5                3.589937e-03 3.584905e-03 3.823233e-05 6.869443e-03 3.233150e-03 4.517273e-06 3.566439e-03 5.028559e-03 5.030322e-03 7.659091e-03 8.489315e-03 1.108616e-02 
    43.5                2.425461e-03 2.421075e-03 2.060608e-05 4.725086e-03 2.220316e-03 2.932767e-06 2.410121e-03 3.384811e-03 3.386416e-03 5.256627e-03 5.753439e-03 7.547215e-03 
    44.5                1.486791e-03 1.483993e-03 9.838338e-06 2.997616e-03 1.406667e-03 1.675737e-06 1.477866e-03 2.085399e-03 2.086380e-03 3.328397e-03 3.551914e-03 4.699354e-03 
    45.5                7.964688e-04 7.947794e-04 4.094019e-06 1.671985e-03 7.838705e-04 8.135123e-07 7.919884e-04 1.126450e-03 1.126841e-03 1.853669e-03 1.919236e-03 2.565227e-03 
    46.5                3.482356e-04 3.473360e-04 1.342442e-06 7.793992e-04 3.652018e-04 3.008417e-07 3.464616e-04 5.034763e-04 5.038068e-04 8.630757e-04 8.514864e-04 1.156777e-03 
    47.5                1.093936e-04 1.091482e-04 3.040758e-07 2.676642e-04 1.253616e-04 7.711864e-08 1.089108e-04 1.646103e-04 1.646814e-04 2.961259e-04 2.738707e-04 3.809580e-04 
    48.5                2.374859e-05 2.370692e-05 4.339986e-08 6.439785e-05 3.015328e-05 1.166124e-08 2.366293e-05 3.754089e-05 3.757553e-05 7.119416e-05 6.117949e-05 8.747085e-05 
    49.5                2.780393e-06 2.783241e-06 1.404564e-09 8.926507e-06 4.178950e-06 3.954138e-10 2.774755e-06 4.843879e-06 4.850307e-06 9.861561e-06 7.546499e-06 1.129178e-05 
    50.5                5.331955e-08 5.407674e-08 0.000000e+00 2.559538e-07 1.197720e-07 0.000000e+00 5.351914e-08 1.241001e-07 1.238039e-07 2.826616e-07 1.705193e-07 2.861500e-07 
    51.5                0.000000e+00 0.000000e+00 0.000000e+00 0.000000e+00 0.000000e+00 0.000000e+00 0.000000e+00 0.000000e+00 0.000000e+00 0.000000e+00 0.000000e+00 0.000000e+00 
    52.5                0.000000e+00 0.000000e+00 0.000000e+00 0.000000e+00 0.000000e+00 0.000000e+00 0.000000e+00 0.000000e+00 0.000000e+00 0.000000e+00 0.000000e+00 0.000000e+00 
    53.5                0.000000e+00 0.000000e+00 0.000000e+00 0.000000e+00 0.000000e+00 0.000000e+00 0.000000e+00 0.000000e+00 0.000000e+00 0.000000e+00 0.000000e+00 0.000000e+00 
    54.5                0.000000e+00 0.000000e+00 0.000000e+00 0.000000e+00 0.000000e+00 0.000000e+00 0.000000e+00 0.000000e+00 0.000000e+00 0.000000e+00 0.000000e+00 0.000000e+00 
    55.5                0.000000e+00 0.000000e+00 0.000000e+00 0.000000e+00 0.000000e+00 0.000000e+00 0.000000e+00 0.000000e+00 0.000000e+00 0.000000e+00 0.000000e+00 0.000000e+00 
    56.5                0.000000e+00 0.000000e+00 0.000000e+00 0.000000e+00 0.000000e+00 0.000000e+00 0.000000e+00 0.000000e+00 0.000000e+00 0.000000e+00 0.000000e+00 0.000000e+00 
    57.5                0.000000e+00 0.000000e+00 0.000000e+00 0.000000e+00 0.000000e+00 0.000000e+00 0.000000e+00 0.000000e+00 0.000000e+00 0.000000e+00 0.000000e+00 0.000000e+00 
    58.5                0.000000e+00 0.000000e+00 0.000000e+00 0.000000e+00 0.000000e+00 0.000000e+00 0.000000e+00 0.000000e+00 0.000000e+00 0.000000e+00 0.000000e+00 0.000000e+00 
    59.5                0.000000e+00 0.000000e+00 0.000000e+00 0.000000e+00 0.000000e+00 0.000000e+00 0.000000e+00 0.000000e+00 0.000000e+00 0.000000e+00 0.000000e+00 0.000000e+00 
    60.5                0.000000e+00 0.000000e+00 0.000000e+00 0.000000e+00 0.000000e+00 0.000000e+00 0.000000e+00 0.000000e+00 0.000000e+00 0.000000e+00 0.000000e+00 0.000000e+00 
    61.5                0.000000e+00 0.000000e+00 0.000000e+00 0.000000e+00 0.000000e+00 0.000000e+00 0.000000e+00 0.000000e+00 0.000000e+00 0.000000e+00 0.000000e+00 0.000000e+00 
    62.5                0.000000e+00 0.000000e+00 0.000000e+00 0.000000e+00 0.000000e+00 0.000000e+00 0.000000e+00 0.000000e+00 0.000000e+00 0.000000e+00 0.000000e+00 0.000000e+00 
    63.5                0.000000e+00 0.000000e+00 0.000000e+00 0.000000e+00 0.000000e+00 0.000000e+00 0.000000e+00 0.000000e+00 0.000000e+00 0.000000e+00 0.000000e+00 0.000000e+00 
    64.5                0.000000e+00 0.000000e+00 0.000000e+00 0.000000e+00 0.000000e+00 0.000000e+00 0.000000e+00 0.000000e+00 0.000000e+00 0.000000e+00 0.000000e+00 0.000000e+00 
    65.5                0.000000e+00 0.000000e+00 0.000000e+00 0.000000e+00 0.000000e+00 0.000000e+00 0.000000e+00 0.000000e+00 0.000000e+00 0.000000e+00 0.000000e+00 0.000000e+00 
    66.5                0.000000e+00 0.000000e+00 0.000000e+00 0.000000e+00 0.000000e+00 0.000000e+00 0.000000e+00 0.000000e+00 0.000000e+00 0.000000e+00 0.000000e+00 0.000000e+00 
    67.5                0.000000e+00 0.000000e+00 0.000000e+00 0.000000e+00 0.000000e+00 0.000000e+00 0.000000e+00 0.000000e+00 0.000000e+00 0.000000e+00 0.000000e+00 0.000000e+00 
    68.5                0.000000e+00 0.000000e+00 0.000000e+00 0.000000e+00 0.000000e+00 0.000000e+00 0.000000e+00 0.000000e+00 0.000000e+00 0.000000e+00 0.000000e+00 0.000000e+00 
    69.5                0.000000e+00 0.000000e+00 0.000000e+00 0.000000e+00 0.000000e+00 0.000000e+00 0.000000e+00 0.000000e+00 0.000000e+00 0.000000e+00 0.000000e+00 0.000000e+00 
    70.5                0.000000e+00 0.000000e+00 0.000000e+00 0.000000e+00 0.000000e+00 0.000000e+00 0.000000e+00 0.000000e+00 0.000000e+00 0.000000e+00 0.000000e+00 0.000000e+00 
    71.5                0.000000e+00 0.000000e+00 0.000000e+00 0.000000e+00 0.000000e+00 0.000000e+00 0.000000e+00 0.000000e+00 0.000000e+00 0.000000e+00 0.000000e+00 0.000000e+00 
    72.5                0.000000e+00 0.000000e+00 0.000000e+00 0.000000e+00 0.000000e+00 0.000000e+00 0.000000e+00 0.000000e+00 0.000000e+00 0.000000e+00 0.000000e+00 0.000000e+00 
    73.5                0.000000e+00 0.000000e+00 0.000000e+00 0.000000e+00 0.000000e+00 0.000000e+00 0.000000e+00 0.000000e+00 0.000000e+00 0.000000e+00 0.000000e+00 0.000000e+00 
    74.5                0.000000e+00 0.000000e+00 0.000000e+00 0.000000e+00 0.000000e+00 0.000000e+00 0.000000e+00 0.000000e+00 0.000000e+00 0.000000e+00 0.000000e+00 0.000000e+00 
    75.5                0.000000e+00 0.000000e+00 0.000000e+00 0.000000e+00 0.000000e+00 0.000000e+00 0.000000e+00 0.000000e+00 0.000000e+00 0.000000e+00 0.000000e+00 0.000000e+00 
    76.5                0.000000e+00 0.000000e+00 0.000000e+00 0.000000e+00 0.000000e+00 0.000000e+00 0.000000e+00 0.000000e+00 0.000000e+00 0.000000e+00 0.000000e+00 0.000000e+00 
    77.5                0.000000e+00 0.000000e+00 0.000000e+00 0.000000e+00 0.000000e+00 0.000000e+00 0.000000e+00 0.000000e+00 0.000000e+00 0.000000e+00 0.000000e+00 0.000000e+00 
    78.5                0.000000e+00 0.000000e+00 0.000000e+00 0.000000e+00 0.000000e+00 0.000000e+00 0.000000e+00 0.000000e+00 0.000000e+00 0.000000e+00 0.000000e+00 0.000000e+00 
    79.5                0.000000e+00 0.000000e+00 0.000000e+00 0.000000e+00 0.000000e+00 0.000000e+00 0.000000e+00 0.000000e+00 0.000000e+00 0.000000e+00 0.000000e+00 0.000000e+00 


