# 80 rows of flux data
# 12 columns of flux data
# 
# total cross-sectional flux  2.107550e+00 /m^2/yr
#
#                             +x ram      -x wake      +y port -y starboard    +z zenith     -z nadir        Earth          Sun     anti-Sun      rot (x)      rot (y)      rot (z) 
# average speed (km/s)         24.04        24.04        18.84        24.73        22.50        24.21        24.04        24.30        24.30        23.16        23.66        23.89 
# total flux (#/m2/yr)  6.599219e-01 6.597021e-01 2.046143e-01 9.432297e-01 6.389326e-01 1.181872e-03 6.544740e-01 9.212236e-01 9.209924e-01 1.393811e+00 1.592607e+00 1.942613e+00 
# velocity (km/s)
     0.5                0.000000e+00 0.000000e+00 0.000000e+00 0.000000e+00 0.000000e+00 0.000000e+00 0.000000e+00 0.000000e+00 0.000000e+00 0.000000e+00 0.000000e+00 0.000000e+00 
     1.5                0.000000e+00 0.000000e+00 0.000000e+00 0.000000e+00 0.000000e+00 0.000000e+00 0.000000e+00 0.000000e+00 0.000000e+00 0.000000e+00 0.000000e+00 0.000000e+00 
     2.5                1.016990e-06 1.056201e-06 0.000000e+00 4.484789e-06 3.894708e-06 0.000000e+00 1.057037e-06 7.814257e-07 7.690573e-07 6.009626e-06 4.599340e-06 5.146397e-06 
     3.5                7.789534e-05 7.860284e-05 5.732649e-06 1.495771e-04 1.236448e-04 4.065690e-08 7.832998e-05 5.770420e-05 5.769341e-05 2.109749e-04 2.190824e-04 2.457644e-04 
     4.5                4.066703e-04 4.077929e-04 7.680893e-05 6.946044e-04 5.907388e-04 4.782956e-07 4.059341e-04 3.179927e-04 3.179645e-04 1.055813e-03 1.113055e-03 1.248392e-03 
     5.5                1.253190e-03 1.254881e-03 3.860870e-04 1.815733e-03 1.759466e-03 1.734708e-06 1.249857e-03 1.069312e-03 1.068571e-03 3.107918e-03 3.380884e-03 3.707678e-03 
     6.5                2.575869e-03 2.578059e-03 1.260999e-03 3.362728e-03 3.513074e-03 3.726714e-06 2.567695e-03 2.299829e-03 2.298973e-03 6.422140e-03 6.859595e-03 7.686224e-03 
     7.5                4.558425e-03 4.560124e-03 2.399338e-03 5.972659e-03 6.308736e-03 6.847468e-06 4.542377e-03 4.220490e-03 4.219382e-03 1.160023e-02 1.220570e-02 1.373526e-02 
     8.5                7.149158e-03 7.150813e-03 4.002644e-03 8.933718e-03 9.505635e-03 1.135050e-05 7.122575e-03 6.825131e-03 6.824343e-03 1.772709e-02 1.885284e-02 2.140128e-02 
     9.5                9.572984e-03 9.572469e-03 5.881593e-03 1.099554e-02 1.260069e-02 1.543562e-05 9.526876e-03 9.802856e-03 9.800179e-03 2.338826e-02 2.517232e-02 2.832151e-02 
    10.5                1.187029e-02 1.186942e-02 8.096712e-03 1.344086e-02 1.579355e-02 1.955759e-05 1.180543e-02 1.315537e-02 1.315358e-02 2.966825e-02 3.131619e-02 3.553854e-02 
    11.5                1.395105e-02 1.394601e-02 9.810008e-03 1.561618e-02 1.857938e-02 2.237897e-05 1.386418e-02 1.638149e-02 1.637729e-02 3.488602e-02 3.678480e-02 4.187682e-02 
    12.5                1.539440e-02 1.538584e-02 1.099978e-02 1.742278e-02 2.033505e-02 2.531899e-05 1.528367e-02 1.923894e-02 1.923621e-02 3.864339e-02 4.055716e-02 4.650561e-02 
    13.5                1.711943e-02 1.711701e-02 1.147301e-02 2.041026e-02 2.239272e-02 2.841253e-05 1.699461e-02 2.239974e-02 2.239445e-02 4.289623e-02 4.498361e-02 5.191278e-02 
    14.5                1.897468e-02 1.896909e-02 1.194956e-02 2.330765e-02 2.383858e-02 3.236552e-05 1.882521e-02 2.558021e-02 2.557522e-02 4.663018e-02 4.922464e-02 5.749784e-02 
    15.5                2.069111e-02 2.068346e-02 1.194018e-02 2.606084e-02 2.475436e-02 3.598690e-05 2.052045e-02 2.860175e-02 2.859605e-02 4.950798e-02 5.290370e-02 6.236061e-02 
    16.5                2.224111e-02 2.223699e-02 1.187715e-02 2.870715e-02 2.558212e-02 3.957942e-05 2.205516e-02 3.126496e-02 3.125796e-02 5.215226e-02 5.619593e-02 6.682343e-02 
    17.5                2.357237e-02 2.356475e-02 1.152517e-02 3.136075e-02 2.608311e-02 4.262576e-05 2.336615e-02 3.382105e-02 3.381376e-02 5.428757e-02 5.888047e-02 7.074617e-02 
    18.5                2.472963e-02 2.472029e-02 1.099447e-02 3.339327e-02 2.619370e-02 4.548521e-05 2.450859e-02 3.588367e-02 3.587508e-02 5.551344e-02 6.101251e-02 7.375975e-02 
    19.5                2.551916e-02 2.551188e-02 1.055763e-02 3.505440e-02 2.625446e-02 4.753225e-05 2.529008e-02 3.737829e-02 3.736968e-02 5.649033e-02 6.247108e-02 7.597571e-02 
    20.5                2.623161e-02 2.622669e-02 1.001259e-02 3.682564e-02 2.615089e-02 4.881874e-05 2.599513e-02 3.866311e-02 3.865377e-02 5.729130e-02 6.368884e-02 7.806061e-02 
    21.5                2.709378e-02 2.708804e-02 9.169563e-03 3.895214e-02 2.630063e-02 5.048374e-05 2.684640e-02 4.018965e-02 4.017915e-02 5.832349e-02 6.532016e-02 8.043942e-02 
    22.5                2.789328e-02 2.788619e-02 8.708578e-03 4.051215e-02 2.641903e-02 5.205759e-05 2.763805e-02 4.142919e-02 4.141907e-02 5.920559e-02 6.685052e-02 8.258383e-02 
    23.5                2.825010e-02 2.824170e-02 8.099779e-03 4.149633e-02 2.599406e-02 5.296893e-05 2.799051e-02 4.192815e-02 4.191805e-02 5.910962e-02 6.722184e-02 8.344408e-02 
    24.5                2.840858e-02 2.840113e-02 7.361462e-03 4.230630e-02 2.555497e-02 5.318457e-05 2.814914e-02 4.211437e-02 4.210326e-02 5.873552e-02 6.725169e-02 8.375633e-02 
    25.5                2.837869e-02 2.837027e-02 6.563400e-03 4.270578e-02 2.492349e-02 5.275153e-05 2.812094e-02 4.192780e-02 4.191614e-02 5.781128e-02 6.681198e-02 8.341210e-02 
    26.5                2.779658e-02 2.778671e-02 5.732876e-03 4.204662e-02 2.389685e-02 5.164597e-05 2.754547e-02 4.085820e-02 4.084702e-02 5.574967e-02 6.516164e-02 8.136210e-02 
    27.5                2.703284e-02 2.702526e-02 4.984549e-03 4.143240e-02 2.293816e-02 4.952941e-05 2.679139e-02 3.964230e-02 3.963236e-02 5.383491e-02 6.319193e-02 7.909517e-02 
    28.5                2.618313e-02 2.617377e-02 4.260658e-03 4.037178e-02 2.188018e-02 4.768821e-05 2.595100e-02 3.817407e-02 3.816359e-02 5.152738e-02 6.102280e-02 7.638679e-02 
    29.5                2.503204e-02 2.502234e-02 3.634086e-03 3.883321e-02 2.062494e-02 4.526386e-05 2.481175e-02 3.629654e-02 3.628597e-02 4.879088e-02 5.816992e-02 7.288986e-02 
    30.5                2.372692e-02 2.371905e-02 3.027203e-03 3.699916e-02 1.928581e-02 4.255058e-05 2.352308e-02 3.417487e-02 3.416665e-02 4.576836e-02 5.499475e-02 6.893554e-02 
    31.5                2.220806e-02 2.219838e-02 2.425066e-03 3.474588e-02 1.780627e-02 3.948042e-05 2.201837e-02 3.171338e-02 3.170425e-02 4.231898e-02 5.133874e-02 6.432233e-02 
    32.5                2.044602e-02 2.043769e-02 1.917295e-03 3.203483e-02 1.619000e-02 3.612150e-05 2.027635e-02 2.891423e-02 2.890716e-02 3.851582e-02 4.715658e-02 5.904687e-02 
    33.5                1.843874e-02 1.843034e-02 1.501098e-03 2.889139e-02 1.444980e-02 3.249024e-05 1.828806e-02 2.582571e-02 2.581769e-02 3.438233e-02 4.244631e-02 5.310204e-02 
    34.5                1.641365e-02 1.640504e-02 1.173256e-03 2.571679e-02 1.274283e-02 2.875939e-05 1.628164e-02 2.277344e-02 2.276737e-02 3.033128e-02 3.771605e-02 4.716355e-02 
    35.5                1.436745e-02 1.435970e-02 8.813562e-04 2.252426e-02 1.105693e-02 2.513162e-05 1.425421e-02 1.973264e-02 1.972631e-02 2.632109e-02 3.296403e-02 4.120831e-02 
    36.5                1.240105e-02 1.239415e-02 6.415085e-04 1.940333e-02 9.442015e-03 2.161946e-05 1.230616e-02 1.683079e-02 1.682649e-02 2.247781e-02 2.839409e-02 3.546513e-02 
    37.5                1.046672e-02 1.046015e-02 4.544685e-04 1.634666e-02 7.898654e-03 1.828381e-05 1.038799e-02 1.404092e-02 1.403739e-02 1.879591e-02 2.392745e-02 2.986284e-02 
    38.5                8.603543e-03 8.597544e-03 3.169632e-04 1.331890e-02 6.397989e-03 1.517433e-05 8.540752e-03 1.136846e-02 1.136512e-02 1.522208e-02 1.961632e-02 2.443070e-02 
    39.5                6.776055e-03 6.770730e-03 2.101075e-04 1.037514e-02 4.958064e-03 1.213669e-05 6.728099e-03 8.805524e-03 8.802920e-03 1.179379e-02 1.540619e-02 1.913952e-02 
    40.5                5.086344e-03 5.081519e-03 1.331542e-04 7.682399e-03 3.656099e-03 9.284236e-06 5.051190e-03 6.495702e-03 6.493914e-03 8.693640e-03 1.152957e-02 1.428060e-02 
    41.5                3.632412e-03 3.628678e-03 7.983063e-05 5.427487e-03 2.573609e-03 6.740284e-06 3.607966e-03 4.564171e-03 4.562514e-03 6.116867e-03 8.214292e-03 1.015060e-02 
    42.5                2.473562e-03 2.470646e-03 4.508148e-05 3.627890e-03 1.715374e-03 4.699003e-06 2.457433e-03 3.045662e-03 3.045037e-03 4.074790e-03 5.573652e-03 6.859461e-03 
    43.5                1.541335e-03 1.539364e-03 2.458250e-05 2.176180e-03 1.027160e-03 3.065101e-06 1.531832e-03 1.846852e-03 1.846251e-03 2.439393e-03 3.451356e-03 4.214095e-03 
    44.5                8.425154e-04 8.409572e-04 1.184258e-05 1.134052e-03 5.344622e-04 1.772665e-06 8.372713e-04 9.786308e-04 9.784450e-04 1.269209e-03 1.872071e-03 2.263742e-03 
    45.5                3.804179e-04 3.797886e-04 4.924365e-06 4.714521e-04 2.220693e-04 8.763207e-07 3.783828e-04 4.240278e-04 4.237276e-04 5.274706e-04 8.354650e-04 9.938851e-04 
    46.5                1.253927e-04 1.250324e-04 1.678340e-06 1.386245e-04 6.532121e-05 3.336836e-07 1.246469e-04 1.331586e-04 1.331690e-04 1.553408e-04 2.715871e-04 3.167105e-04 
    47.5                2.887150e-05 2.882834e-05 3.989260e-07 2.721566e-05 1.283203e-05 8.877481e-08 2.875270e-05 2.896337e-05 2.894402e-05 3.057767e-05 6.149917e-05 6.984030e-05 
    48.5                3.750711e-06 3.742217e-06 5.940238e-08 2.482988e-06 1.175783e-06 1.409383e-08 3.734206e-06 3.409552e-06 3.419353e-06 2.818786e-06 7.744924e-06 8.365096e-06 
    49.5                9.256210e-08 9.056471e-08 2.354800e-09 2.203079e-08 1.068588e-08 5.485712e-10 9.032404e-08 7.380969e-08 7.513079e-08 2.721668e-08 1.837417e-07 1.858121e-07 
    50.5                0.000000e+00 0.000000e+00 0.000000e+00 0.000000e+00 0.000000e+00 0.000000e+00 0.000000e+00 0.000000e+00 0.000000e+00 0.000000e+00 0.000000e+00 0.000000e+00 
    51.5                0.000000e+00 0.000000e+00 0.000000e+00 0.000000e+00 0.000000e+00 0.000000e+00 0.000000e+00 0.000000e+00 0.000000e+00 0.000000e+00 0.000000e+00 0.000000e+00 
    52.5                0.000000e+00 0.000000e+00 0.000000e+00 0.000000e+00 0.000000e+00 0.000000e+00 0.000000e+00 0.000000e+00 0.000000e+00 0.000000e+00 0.000000e+00 0.000000e+00 
    53.5                0.000000e+00 0.000000e+00 0.000000e+00 0.000000e+00 0.000000e+00 0.000000e+00 0.000000e+00 0.000000e+00 0.000000e+00 0.000000e+00 0.000000e+00 0.000000e+00 
    54.5                0.000000e+00 0.000000e+00 0.000000e+00 0.000000e+00 0.000000e+00 0.000000e+00 0.000000e+00 0.000000e+00 0.000000e+00 0.000000e+00 0.000000e+00 0.000000e+00 
    55.5                0.000000e+00 0.000000e+00 0.000000e+00 0.000000e+00 0.000000e+00 0.000000e+00 0.000000e+00 0.000000e+00 0.000000e+00 0.000000e+00 0.000000e+00 0.000000e+00 
    56.5                0.000000e+00 0.000000e+00 0.000000e+00 0.000000e+00 0.000000e+00 0.000000e+00 0.000000e+00 0.000000e+00 0.000000e+00 0.000000e+00 0.000000e+00 0.000000e+00 
    57.5                0.000000e+00 0.000000e+00 0.000000e+00 0.000000e+00 0.000000e+00 0.000000e+00 0.000000e+00 0.000000e+00 0.000000e+00 0.000000e+00 0.000000e+00 0.000000e+00 
    58.5                0.000000e+00 0.000000e+00 0.000000e+00 0.000000e+00 0.000000e+00 0.000000e+00 0.000000e+00 0.000000e+00 0.000000e+00 0.000000e+00 0.000000e+00 0.000000e+00 
    59.5                0.000000e+00 0.000000e+00 0.000000e+00 0.000000e+00 0.000000e+00 0.000000e+00 0.000000e+00 0.000000e+00 0.000000e+00 0.000000e+00 0.000000e+00 0.000000e+00 
    60.5                0.000000e+00 0.000000e+00 0.000000e+00 0.000000e+00 0.000000e+00 0.000000e+00 0.000000e+00 0.000000e+00 0.000000e+00 0.000000e+00 0.000000e+00 0.000000e+00 
    61.5                0.000000e+00 0.000000e+00 0.000000e+00 0.000000e+00 0.000000e+00 0.000000e+00 0.000000e+00 0.000000e+00 0.000000e+00 0.000000e+00 0.000000e+00 0.000000e+00 
    62.5                0.000000e+00 0.000000e+00 0.000000e+00 0.000000e+00 0.000000e+00 0.000000e+00 0.000000e+00 0.000000e+00 0.000000e+00 0.000000e+00 0.000000e+00 0.000000e+00 
    63.5                0.000000e+00 0.000000e+00 0.000000e+00 0.000000e+00 0.000000e+00 0.000000e+00 0.000000e+00 0.000000e+00 0.000000e+00 0.000000e+00 0.000000e+00 0.000000e+00 
    64.5                0.000000e+00 0.000000e+00 0.000000e+00 0.000000e+00 0.000000e+00 0.000000e+00 0.000000e+00 0.000000e+00 0.000000e+00 0.000000e+00 0.000000e+00 0.000000e+00 
    65.5                0.000000e+00 0.000000e+00 0.000000e+00 0.000000e+00 0.000000e+00 0.000000e+00 0.000000e+00 0.000000e+00 0.000000e+00 0.000000e+00 0.000000e+00 0.000000e+00 
    66.5                0.000000e+00 0.000000e+00 0.000000e+00 0.000000e+00 0.000000e+00 0.000000e+00 0.000000e+00 0.000000e+00 0.000000e+00 0.000000e+00 0.000000e+00 0.000000e+00 
    67.5                0.000000e+00 0.000000e+00 0.000000e+00 0.000000e+00 0.000000e+00 0.000000e+00 0.000000e+00 0.000000e+00 0.000000e+00 0.000000e+00 0.000000e+00 0.000000e+00 
    68.5                0.000000e+00 0.000000e+00 0.000000e+00 0.000000e+00 0.000000e+00 0.000000e+00 0.000000e+00 0.000000e+00 0.000000e+00 0.000000e+00 0.000000e+00 0.000000e+00 
    69.5                0.000000e+00 0.000000e+00 0.000000e+00 0.000000e+00 0.000000e+00 0.000000e+00 0.000000e+00 0.000000e+00 0.000000e+00 0.000000e+00 0.000000e+00 0.000000e+00 
    70.5                0.000000e+00 0.000000e+00 0.000000e+00 0.000000e+00 0.000000e+00 0.000000e+00 0.000000e+00 0.000000e+00 0.000000e+00 0.000000e+00 0.000000e+00 0.000000e+00 
    71.5                0.000000e+00 0.000000e+00 0.000000e+00 0.000000e+00 0.000000e+00 0.000000e+00 0.000000e+00 0.000000e+00 0.000000e+00 0.000000e+00 0.000000e+00 0.000000e+00 
    72.5                0.000000e+00 0.000000e+00 0.000000e+00 0.000000e+00 0.000000e+00 0.000000e+00 0.000000e+00 0.000000e+00 0.000000e+00 0.000000e+00 0.000000e+00 0.000000e+00 
    73.5                0.000000e+00 0.000000e+00 0.000000e+00 0.000000e+00 0.000000e+00 0.000000e+00 0.000000e+00 0.000000e+00 0.000000e+00 0.000000e+00 0.000000e+00 0.000000e+00 
    74.5                0.000000e+00 0.000000e+00 0.000000e+00 0.000000e+00 0.000000e+00 0.000000e+00 0.000000e+00 0.000000e+00 0.000000e+00 0.000000e+00 0.000000e+00 0.000000e+00 
    75.5                0.000000e+00 0.000000e+00 0.000000e+00 0.000000e+00 0.000000e+00 0.000000e+00 0.000000e+00 0.000000e+00 0.000000e+00 0.000000e+00 0.000000e+00 0.000000e+00 
    76.5                0.000000e+00 0.000000e+00 0.000000e+00 0.000000e+00 0.000000e+00 0.000000e+00 0.000000e+00 0.000000e+00 0.000000e+00 0.000000e+00 0.000000e+00 0.000000e+00 
    77.5                0.000000e+00 0.000000e+00 0.000000e+00 0.000000e+00 0.000000e+00 0.000000e+00 0.000000e+00 0.000000e+00 0.000000e+00 0.000000e+00 0.000000e+00 0.000000e+00 
    78.5                0.000000e+00 0.000000e+00 0.000000e+00 0.000000e+00 0.000000e+00 0.000000e+00 0.000000e+00 0.000000e+00 0.000000e+00 0.000000e+00 0.000000e+00 0.000000e+00 
    79.5                0.000000e+00 0.000000e+00 0.000000e+00 0.000000e+00 0.000000e+00 0.000000e+00 0.000000e+00 0.000000e+00 0.000000e+00 0.000000e+00 0.000000e+00 0.000000e+00 


