# 80 rows of flux data
# 12 columns of flux data
# 
# total cross-sectional flux  1.028572e+00 /m^2/yr
#
#                             +x ram      -x wake      +y port -y starboard    +z zenith     -z nadir        Earth          Sun     anti-Sun      rot (x)      rot (y)      rot (z) 
# average speed (km/s)         38.13        36.84        38.42        36.55        31.63        35.41        37.19        27.88        27.89        33.83        33.82        37.37 
# total flux (#/m2/yr)  2.126675e-01 2.534742e-01 1.894557e-01 2.797959e-01 6.258990e-01 1.027353e-04 2.418956e-01 1.667627e-01 1.669441e-01 8.526856e-01 8.471610e-01 7.346871e-01 
# velocity (km/s)
     0.5                0.000000e+00 0.000000e+00 0.000000e+00 0.000000e+00 0.000000e+00 0.000000e+00 0.000000e+00 0.000000e+00 0.000000e+00 0.000000e+00 0.000000e+00 0.000000e+00 
     1.5                0.000000e+00 0.000000e+00 0.000000e+00 0.000000e+00 0.000000e+00 0.000000e+00 0.000000e+00 0.000000e+00 0.000000e+00 0.000000e+00 0.000000e+00 0.000000e+00 
     2.5                1.191722e-04 3.237669e-05 8.799035e-05 9.102935e-05 1.552675e-04 5.819420e-08 1.010360e-04 8.409346e-05 8.416614e-05 2.615660e-04 2.413433e-04 2.600830e-04 
     3.5                4.736838e-04 3.663030e-04 4.577711e-04 4.381138e-04 7.507570e-04 4.803557e-07 5.217282e-04 4.399534e-04 4.454362e-04 1.289547e-03 1.251092e-03 1.363028e-03 
     4.5                8.447833e-04 9.577588e-04 9.361936e-04 9.054527e-04 1.637931e-03 1.049777e-06 1.075301e-03 9.715984e-04 9.793851e-04 2.728368e-03 2.706211e-03 2.862260e-03 
     5.5                1.252532e-03 1.614145e-03 1.422049e-03 1.434900e-03 2.746973e-03 1.670203e-06 1.653920e-03 1.600577e-03 1.607207e-03 4.394534e-03 4.408965e-03 4.495349e-03 
     6.5                1.615544e-03 2.270651e-03 1.858550e-03 1.997037e-03 4.115060e-03 2.150846e-06 2.200586e-03 2.229981e-03 2.232743e-03 6.257329e-03 6.284338e-03 6.079975e-03 
     7.5                1.977466e-03 2.827170e-03 2.221544e-03 2.548846e-03 5.586376e-03 2.440936e-06 2.682325e-03 2.810160e-03 2.807974e-03 8.138833e-03 8.169291e-03 7.521333e-03 
     8.5                2.314280e-03 3.337580e-03 2.544676e-03 3.058849e-03 7.036790e-03 2.696893e-06 3.118223e-03 3.348956e-03 3.345080e-03 9.948860e-03 9.980713e-03 8.840792e-03 
     9.5                2.565437e-03 3.755883e-03 2.795064e-03 3.526041e-03 8.439280e-03 2.857206e-06 3.478269e-03 3.823458e-03 3.821633e-03 1.163410e-02 1.162954e-02 9.929927e-03 
    10.5                2.868994e-03 4.083405e-03 2.987161e-03 3.960698e-03 9.827738e-03 2.970825e-06 3.776722e-03 4.272778e-03 4.273483e-03 1.323650e-02 1.323622e-02 1.091790e-02 
    11.5                3.093145e-03 4.445057e-03 3.166890e-03 4.412987e-03 1.146237e-02 2.913683e-06 4.077548e-03 4.721397e-03 4.723509e-03 1.505985e-02 1.502284e-02 1.187280e-02 
    12.5                3.269443e-03 4.713210e-03 3.287503e-03 4.755146e-03 1.270611e-02 2.928572e-06 4.293581e-03 5.043209e-03 5.046630e-03 1.641305e-02 1.637349e-02 1.258731e-02 
    13.5                3.304767e-03 4.881565e-03 3.297435e-03 4.964211e-03 1.379205e-02 2.919855e-06 4.374732e-03 5.181037e-03 5.185510e-03 1.751052e-02 1.745739e-02 1.291787e-02 
    14.5                3.428703e-03 4.785869e-03 3.264635e-03 5.073833e-03 1.440035e-02 2.832364e-06 4.383552e-03 5.233332e-03 5.238744e-03 1.808417e-02 1.800678e-02 1.299921e-02 
    15.5                3.487579e-03 4.941499e-03 3.276394e-03 5.320799e-03 1.556286e-02 2.683390e-06 4.481658e-03 5.345533e-03 5.350833e-03 1.924570e-02 1.914078e-02 1.337147e-02 
    16.5                3.534744e-03 4.896037e-03 3.222369e-03 5.372614e-03 1.586834e-02 2.522296e-06 4.447640e-03 5.357620e-03 5.362063e-03 1.949750e-02 1.938896e-02 1.337120e-02 
    17.5                3.549809e-03 4.908277e-03 3.197911e-03 5.457448e-03 1.633259e-02 2.393433e-06 4.456604e-03 5.324147e-03 5.328969e-03 1.992020e-02 1.979410e-02 1.344021e-02 
    18.5                3.610372e-03 4.876740e-03 3.162303e-03 5.533760e-03 1.682704e-02 2.260597e-06 4.459742e-03 5.284002e-03 5.288977e-03 2.035377e-02 2.022456e-02 1.349499e-02 
    19.5                3.592492e-03 4.835093e-03 3.129877e-03 5.556650e-03 1.695211e-02 2.112032e-06 4.443128e-03 5.169801e-03 5.175352e-03 2.042330e-02 2.024682e-02 1.344144e-02 
    20.5                3.536797e-03 4.761025e-03 3.013320e-03 5.461943e-03 1.676308e-02 1.949091e-06 4.315210e-03 4.983801e-03 4.988405e-03 2.008710e-02 1.996251e-02 1.317128e-02 
    21.5                3.582609e-03 4.611236e-03 2.952089e-03 5.476907e-03 1.688647e-02 1.803283e-06 4.262939e-03 4.844044e-03 4.848206e-03 2.014424e-02 1.997347e-02 1.305555e-02 
    22.5                3.508785e-03 4.671963e-03 2.921142e-03 5.536727e-03 1.716384e-02 1.618319e-06 4.257586e-03 4.719019e-03 4.722846e-03 2.036831e-02 2.017762e-02 1.306884e-02 
    23.5                3.367764e-03 4.452300e-03 2.749776e-03 5.238236e-03 1.625485e-02 1.476269e-06 4.020256e-03 4.418133e-03 4.421831e-03 1.925861e-02 1.911675e-02 1.241552e-02 
    24.5                3.286933e-03 4.198406e-03 2.639589e-03 5.039406e-03 1.558464e-02 1.374621e-06 3.864802e-03 4.155590e-03 4.158965e-03 1.844785e-02 1.828661e-02 1.190793e-02 
    25.5                3.200422e-03 4.105552e-03 2.547397e-03 4.915054e-03 1.523368e-02 1.229002e-06 3.749283e-03 3.927695e-03 3.931080e-03 1.798301e-02 1.783448e-02 1.159660e-02 
    26.5                3.170124e-03 3.929303e-03 2.484358e-03 4.786509e-03 1.467372e-02 1.060046e-06 3.651490e-03 3.716559e-03 3.719804e-03 1.734138e-02 1.717804e-02 1.128539e-02 
    27.5                3.042940e-03 3.864398e-03 2.400276e-03 4.652500e-03 1.409719e-02 9.281652e-07 3.530785e-03 3.510531e-03 3.512736e-03 1.666123e-02 1.650649e-02 1.096362e-02 
    28.5                2.975534e-03 3.684902e-03 2.296494e-03 4.476550e-03 1.348703e-02 7.986935e-07 3.383503e-03 3.248922e-03 3.251187e-03 1.592374e-02 1.578586e-02 1.055004e-02 
    29.5                2.760109e-03 3.546195e-03 2.170975e-03 4.249606e-03 1.276834e-02 7.038156e-07 3.204306e-03 2.944287e-03 2.946482e-03 1.505900e-02 1.491684e-02 9.993219e-03 
    30.5                2.688306e-03 3.283513e-03 2.024170e-03 4.029957e-03 1.217472e-02 5.770810e-07 3.010418e-03 2.725725e-03 2.727146e-03 1.430317e-02 1.417662e-02 9.444165e-03 
    31.5                2.679287e-03 3.173093e-03 1.994708e-03 3.959584e-03 1.180133e-02 4.802429e-07 2.958153e-03 2.560255e-03 2.561828e-03 1.387425e-02 1.374222e-02 9.272093e-03 
    32.5                2.573560e-03 3.086753e-03 1.940307e-03 3.781802e-03 1.108396e-02 4.437447e-07 2.850594e-03 2.348474e-03 2.350239e-03 1.309073e-02 1.296733e-02 8.938687e-03 
    33.5                2.631414e-03 2.998208e-03 1.949753e-03 3.734398e-03 1.071005e-02 4.463033e-07 2.836748e-03 2.170661e-03 2.172326e-03 1.271728e-02 1.259617e-02 8.883310e-03 
    34.5                2.630964e-03 3.051961e-03 1.963443e-03 3.791914e-03 1.078438e-02 3.229556e-07 2.860900e-03 2.085289e-03 2.086318e-03 1.279565e-02 1.267040e-02 8.980736e-03 
    35.5                2.538186e-03 2.935565e-03 1.905659e-03 3.600356e-03 9.931904e-03 2.285611e-07 2.737225e-03 1.947393e-03 1.948168e-03 1.188834e-02 1.177962e-02 8.622025e-03 
    36.5                2.590109e-03 2.840791e-03 1.914450e-03 3.579944e-03 9.685546e-03 1.948101e-07 2.730302e-03 1.818440e-03 1.819088e-03 1.165564e-02 1.152768e-02 8.581642e-03 
    37.5                2.666786e-03 2.960581e-03 1.965188e-03 3.659593e-03 9.786686e-03 1.561695e-07 2.791730e-03 1.761376e-03 1.761792e-03 1.181192e-02 1.172745e-02 8.840419e-03 
    38.5                2.863362e-03 2.875528e-03 2.049905e-03 3.708263e-03 9.560792e-03 1.152568e-07 2.863634e-03 1.689724e-03 1.690314e-03 1.169590e-02 1.158405e-02 9.025876e-03 
    39.5                2.757227e-03 3.101575e-03 2.140235e-03 3.785845e-03 9.483908e-03 1.114594e-07 2.953041e-03 1.639550e-03 1.639960e-03 1.172594e-02 1.158845e-02 9.252097e-03 
    40.5                2.840941e-03 3.047968e-03 2.126048e-03 3.745334e-03 9.297941e-03 1.027347e-07 2.924123e-03 1.571692e-03 1.572281e-03 1.152281e-02 1.144880e-02 9.240103e-03 
    41.5                3.140054e-03 3.081650e-03 2.305447e-03 3.922876e-03 9.331941e-03 1.782326e-07 3.112598e-03 1.553387e-03 1.553966e-03 1.178584e-02 1.168172e-02 9.776329e-03 
    42.5                3.047683e-03 3.359167e-03 2.447237e-03 4.013108e-03 9.084714e-03 2.994272e-07 3.238936e-03 1.546514e-03 1.547236e-03 1.174184e-02 1.160657e-02 1.010761e-02 
    43.5                3.228560e-03 3.262859e-03 2.462016e-03 3.933898e-03 8.655570e-03 3.712796e-07 3.219759e-03 1.499105e-03 1.500141e-03 1.135809e-02 1.131863e-02 1.012055e-02 
    44.5                3.547991e-03 3.422452e-03 2.726919e-03 4.264430e-03 9.017824e-03 3.055043e-07 3.522219e-03 1.545616e-03 1.546850e-03 1.204827e-02 1.192564e-02 1.096721e-02 
    45.5                3.525932e-03 3.768742e-03 2.822861e-03 4.392596e-03 9.049892e-03 1.469577e-07 3.624831e-03 1.548339e-03 1.548918e-03 1.221201e-02 1.216932e-02 1.139314e-02 
    46.5                3.620976e-03 3.690716e-03 2.890964e-03 4.399443e-03 8.805642e-03 3.241985e-07 3.675123e-03 1.514128e-03 1.515215e-03 1.208390e-02 1.200383e-02 1.146914e-02 
    47.5                3.863983e-03 3.834796e-03 3.072377e-03 4.535897e-03 8.738353e-03 4.389084e-07 3.854616e-03 1.536864e-03 1.538488e-03 1.228833e-02 1.225497e-02 1.202293e-02 
    48.5                4.238105e-03 3.929517e-03 3.359166e-03 4.795628e-03 8.697505e-03 6.016919e-07 4.143779e-03 1.585533e-03 1.587221e-03 1.268415e-02 1.257646e-02 1.282097e-02 
    49.5                4.652783e-03 4.353780e-03 3.675740e-03 5.169846e-03 8.979508e-03 6.517670e-07 4.493170e-03 1.645598e-03 1.647265e-03 1.341458e-02 1.342817e-02 1.401633e-02 
    50.5                5.332829e-03 4.635942e-03 4.157613e-03 5.701526e-03 9.307749e-03 7.491491e-07 5.013181e-03 1.729889e-03 1.731724e-03 1.444003e-02 1.442207e-02 1.557259e-02 
    51.5                5.890395e-03 5.297309e-03 4.838575e-03 6.392805e-03 9.603938e-03 1.202103e-06 5.731331e-03 1.815842e-03 1.818479e-03 1.577453e-02 1.562110e-02 1.761216e-02 
    52.5                5.898391e-03 5.972646e-03 5.219460e-03 6.659503e-03 9.408906e-03 1.652852e-06 6.103653e-03 1.865538e-03 1.869294e-03 1.619201e-02 1.606652e-02 1.865167e-02 
    53.5                5.988964e-03 6.103494e-03 5.414563e-03 6.675511e-03 8.981265e-03 2.475023e-06 6.265679e-03 1.885274e-03 1.890727e-03 1.610183e-02 1.598900e-02 1.899467e-02 
    54.5                5.637194e-03 6.219705e-03 5.376172e-03 6.573482e-03 8.493169e-03 2.533808e-06 6.185533e-03 1.869089e-03 1.874221e-03 1.565955e-02 1.547342e-02 1.870799e-02 
    55.5                5.695434e-03 6.144808e-03 5.279245e-03 6.415100e-03 8.097479e-03 2.729429e-06 6.053554e-03 1.844979e-03 1.849568e-03 1.518737e-02 1.519645e-02 1.848158e-02 
    56.5                5.437956e-03 6.026824e-03 5.268813e-03 6.267787e-03 7.692685e-03 3.471064e-06 6.006913e-03 1.806780e-03 1.812335e-03 1.478856e-02 1.463447e-02 1.806662e-02 
    57.5                4.971803e-03 5.808847e-03 4.982527e-03 5.811289e-03 6.980273e-03 3.807861e-06 5.654530e-03 1.720327e-03 1.726218e-03 1.370362e-02 1.359935e-02 1.695728e-02 
    58.5                4.765323e-03 5.346491e-03 4.676545e-03 5.423264e-03 6.307169e-03 3.355370e-06 5.288224e-03 1.591632e-03 1.597067e-03 1.267202e-02 1.259560e-02 1.587606e-02 
    59.5                4.538076e-03 5.052103e-03 4.451558e-03 5.158659e-03 5.810780e-03 2.887836e-06 5.018644e-03 1.461374e-03 1.466090e-03 1.192164e-02 1.184020e-02 1.507838e-02 
    60.5                4.126740e-03 4.873067e-03 4.165310e-03 4.814390e-03 5.253506e-03 2.671067e-06 4.681777e-03 1.306471e-03 1.310397e-03 1.103549e-02 1.098499e-02 1.412440e-02 
    61.5                3.603459e-03 4.409814e-03 3.807611e-03 4.328194e-03 4.493279e-03 2.541800e-06 4.252556e-03 1.145259e-03 1.148936e-03 9.838035e-03 9.684700e-03 1.269443e-02 
    62.5                2.955209e-03 4.075582e-03 3.301447e-03 3.682190e-03 3.719408e-03 2.558292e-06 3.671832e-03 9.800926e-04 9.837559e-04 8.373571e-03 8.357763e-03 1.100850e-02 
    63.5                2.411328e-03 3.333690e-03 2.724505e-03 3.002956e-03 2.934311e-03 2.312470e-06 3.018484e-03 8.077886e-04 8.108794e-04 6.795256e-03 6.779317e-03 9.012798e-03 
    64.5                1.930950e-03 2.747044e-03 2.226771e-03 2.429540e-03 2.320648e-03 2.036882e-06 2.460377e-03 6.407588e-04 6.433855e-04 5.488989e-03 5.477702e-03 7.335866e-03 
    65.5                1.479708e-03 2.182602e-03 1.776745e-03 1.905189e-03 1.749098e-03 1.726838e-06 1.954118e-03 4.845768e-04 4.868730e-04 4.292455e-03 4.254328e-03 5.772018e-03 
    66.5                1.054073e-03 1.753856e-03 1.377085e-03 1.429265e-03 1.271937e-03 1.464365e-06 1.507043e-03 3.482322e-04 3.503938e-04 3.239790e-03 3.225444e-03 4.411005e-03 
    67.5                6.773673e-04 1.288784e-03 9.664333e-04 9.787672e-04 8.355153e-04 1.114997e-06 1.052726e-03 2.272292e-04 2.288966e-04 2.222352e-03 2.231123e-03 3.073477e-03 
    68.5                3.844840e-04 8.685829e-04 6.276353e-04 6.117815e-04 4.911955e-04 8.649495e-07 6.788853e-04 1.314726e-04 1.326814e-04 1.396731e-03 1.402735e-03 1.958782e-03 
    69.5                1.734216e-04 5.323710e-04 3.609345e-04 3.254174e-04 2.481323e-04 6.257199e-07 3.871938e-04 6.446138e-05 6.542461e-05 7.632699e-04 7.767867e-04 1.093116e-03 
    70.5                4.651381e-05 2.692566e-04 1.684445e-04 1.285916e-04 9.577961e-05 3.942147e-07 1.785696e-04 2.460539e-05 2.528069e-05 3.258085e-04 3.410987e-04 4.816589e-04 
    71.5                6.551089e-06 9.901349e-05 5.103643e-05 3.081644e-05 2.458098e-05 1.504732e-07 5.369069e-05 6.219669e-06 6.508070e-06 8.926378e-05 1.107955e-04 1.470782e-04 
    72.5                1.286049e-07 1.780309e-05 7.962007e-06 3.175503e-06 3.050156e-06 2.564722e-08 8.322192e-06 8.714527e-07 9.336146e-07 1.199979e-05 1.843334e-05 2.289680e-05 
    73.5                0.000000e+00 1.459281e-06 4.330502e-07 1.167973e-07 1.202239e-07 3.079355e-09 4.529861e-07 3.753482e-08 4.140903e-08 5.772718e-07 1.468391e-06 1.611807e-06 
    74.5                0.000000e+00 0.000000e+00 0.000000e+00 0.000000e+00 0.000000e+00 0.000000e+00 0.000000e+00 0.000000e+00 0.000000e+00 0.000000e+00 0.000000e+00 0.000000e+00 
    75.5                0.000000e+00 0.000000e+00 0.000000e+00 0.000000e+00 0.000000e+00 0.000000e+00 0.000000e+00 0.000000e+00 0.000000e+00 0.000000e+00 0.000000e+00 0.000000e+00 
    76.5                0.000000e+00 0.000000e+00 0.000000e+00 0.000000e+00 0.000000e+00 0.000000e+00 0.000000e+00 0.000000e+00 0.000000e+00 0.000000e+00 0.000000e+00 0.000000e+00 
    77.5                0.000000e+00 0.000000e+00 0.000000e+00 0.000000e+00 0.000000e+00 0.000000e+00 0.000000e+00 0.000000e+00 0.000000e+00 0.000000e+00 0.000000e+00 0.000000e+00 
    78.5                0.000000e+00 0.000000e+00 0.000000e+00 0.000000e+00 0.000000e+00 0.000000e+00 0.000000e+00 0.000000e+00 0.000000e+00 0.000000e+00 0.000000e+00 0.000000e+00 
    79.5                0.000000e+00 0.000000e+00 0.000000e+00 0.000000e+00 0.000000e+00 0.000000e+00 0.000000e+00 0.000000e+00 0.000000e+00 0.000000e+00 0.000000e+00 0.000000e+00 


