# 80 rows of flux data
# 12 columns of flux data
# 
# total cross-sectional flux  1.034813e+00 /m^2/yr
#
#                             +x ram      -x wake      +y port -y starboard    +z zenith     -z nadir        Earth          Sun     anti-Sun      rot (x)      rot (y)      rot (z) 
# average speed (km/s)         38.24        36.95        35.68        39.77        31.63        44.88        37.76        27.95        28.00        33.97        33.98        37.38 
# total flux (#/m2/yr)  2.139524e-01 2.548762e-01 2.993311e-01 1.791966e-01 6.165966e-01 1.798866e-04 2.564926e-01 1.671950e-01 1.676787e-01 8.580319e-01 8.441310e-01 7.439376e-01 
# velocity (km/s)
     0.5                0.000000e+00 0.000000e+00 0.000000e+00 0.000000e+00 0.000000e+00 0.000000e+00 0.000000e+00 0.000000e+00 0.000000e+00 0.000000e+00 0.000000e+00 0.000000e+00 
     1.5                0.000000e+00 0.000000e+00 0.000000e+00 0.000000e+00 0.000000e+00 0.000000e+00 0.000000e+00 0.000000e+00 0.000000e+00 0.000000e+00 0.000000e+00 0.000000e+00 
     2.5                1.190863e-04 3.234444e-05 9.045817e-05 8.740895e-05 1.550901e-04 6.786936e-08 1.071486e-04 8.384737e-05 8.397218e-05 2.608456e-04 2.413460e-04 2.589874e-04 
     3.5                4.739051e-04 3.661796e-04 4.281101e-04 4.630875e-04 7.529105e-04 4.804068e-07 5.609413e-04 4.383712e-04 4.473809e-04 1.289863e-03 1.253215e-03 1.359722e-03 
     4.5                8.444903e-04 9.575947e-04 8.964352e-04 9.342899e-04 1.640723e-03 1.048194e-06 1.147146e-03 9.687957e-04 9.796175e-04 2.726328e-03 2.708462e-03 2.853661e-03 
     5.5                1.251034e-03 1.613784e-03 1.433940e-03 1.412984e-03 2.745548e-03 1.679624e-06 1.766287e-03 1.598304e-03 1.607155e-03 4.394181e-03 4.406359e-03 4.486799e-03 
     6.5                1.616549e-03 2.271660e-03 2.035623e-03 1.834116e-03 4.100996e-03 2.159019e-06 2.349753e-03 2.231699e-03 2.235443e-03 6.268464e-03 6.275067e-03 6.093840e-03 
     7.5                1.978419e-03 2.828127e-03 2.640563e-03 2.159900e-03 5.552302e-03 2.508917e-06 2.849230e-03 2.812851e-03 2.809739e-03 8.148715e-03 8.143568e-03 7.547615e-03 
     8.5                2.314877e-03 3.338057e-03 3.208461e-03 2.450595e-03 6.982656e-03 2.756844e-06 3.302508e-03 3.352191e-03 3.346895e-03 9.957986e-03 9.936995e-03 8.885464e-03 
     9.5                2.569897e-03 3.757863e-03 3.741542e-03 2.666104e-03 8.361970e-03 2.958892e-06 3.675651e-03 3.828535e-03 3.825642e-03 1.164880e-02 1.157141e-02 1.000291e-02 
    10.5                2.870813e-03 4.086571e-03 4.243558e-03 2.814573e-03 9.724873e-03 3.043540e-06 3.975252e-03 4.273895e-03 4.275208e-03 1.324395e-02 1.315475e-02 1.100789e-02 
    11.5                3.094234e-03 4.451660e-03 4.797911e-03 2.951912e-03 1.132906e-02 3.049732e-06 4.280467e-03 4.727643e-03 4.730831e-03 1.507833e-02 1.491733e-02 1.201179e-02 
    12.5                3.271900e-03 4.714974e-03 5.207914e-03 3.026093e-03 1.254810e-02 3.034834e-06 4.491737e-03 5.046779e-03 5.051572e-03 1.642650e-02 1.624178e-02 1.274064e-02 
    13.5                3.305817e-03 4.882357e-03 5.487862e-03 3.011080e-03 1.361336e-02 2.955358e-06 4.567714e-03 5.180545e-03 5.186888e-03 1.751446e-02 1.730346e-02 1.310578e-02 
    14.5                3.430215e-03 4.787871e-03 5.647145e-03 2.961657e-03 1.420678e-02 2.889713e-06 4.571949e-03 5.234775e-03 5.243206e-03 1.809296e-02 1.783994e-02 1.321475e-02 
    15.5                3.489009e-03 4.942105e-03 5.971181e-03 2.934345e-03 1.534220e-02 2.731288e-06 4.661677e-03 5.345503e-03 5.353550e-03 1.924981e-02 1.894800e-02 1.361515e-02 
    16.5                3.538366e-03 4.898967e-03 6.057344e-03 2.874461e-03 1.563797e-02 2.671245e-06 4.625745e-03 5.363620e-03 5.370384e-03 1.951340e-02 1.919307e-02 1.363974e-02 
    17.5                3.551796e-03 4.911502e-03 6.178555e-03 2.832910e-03 1.608833e-02 2.534762e-06 4.628004e-03 5.328098e-03 5.335415e-03 1.993319e-02 1.958487e-02 1.372300e-02 
    18.5                3.611486e-03 4.879853e-03 6.296541e-03 2.770233e-03 1.656969e-02 2.382450e-06 4.617438e-03 5.286987e-03 5.294474e-03 2.036475e-02 2.000118e-02 1.378818e-02 
    19.5                3.592645e-03 4.836280e-03 6.330981e-03 2.709055e-03 1.669213e-02 2.143236e-06 4.583379e-03 5.169668e-03 5.177227e-03 2.042878e-02 2.001829e-02 1.371709e-02 
    20.5                3.537570e-03 4.760380e-03 6.233694e-03 2.583851e-03 1.649790e-02 1.972917e-06 4.443636e-03 4.983155e-03 4.990340e-03 2.008892e-02 1.972935e-02 1.343850e-02 
    21.5                3.584967e-03 4.611774e-03 6.265411e-03 2.519734e-03 1.661469e-02 1.862979e-06 4.387900e-03 4.845097e-03 4.851430e-03 2.014952e-02 1.973775e-02 1.333408e-02 
    22.5                3.510527e-03 4.674203e-03 6.347267e-03 2.470067e-03 1.688018e-02 1.738374e-06 4.376952e-03 4.722712e-03 4.728230e-03 2.037636e-02 1.993381e-02 1.335250e-02 
    23.5                3.368845e-03 4.454596e-03 6.007096e-03 2.311654e-03 1.598527e-02 1.561331e-06 4.126579e-03 4.420515e-03 4.426081e-03 1.926485e-02 1.888484e-02 1.267339e-02 
    24.5                3.287040e-03 4.199060e-03 5.772738e-03 2.202652e-03 1.532697e-02 1.379049e-06 3.957091e-03 4.154228e-03 4.159501e-03 1.844974e-02 1.806225e-02 1.213720e-02 
    25.5                3.200545e-03 4.105702e-03 5.634413e-03 2.111816e-03 1.497541e-02 1.274373e-06 3.835646e-03 3.928093e-03 3.933106e-03 1.798461e-02 1.761028e-02 1.181540e-02 
    26.5                3.172170e-03 3.931181e-03 5.479397e-03 2.052564e-03 1.442590e-02 1.161169e-06 3.732124e-03 3.719904e-03 3.724290e-03 1.735221e-02 1.696750e-02 1.148856e-02 
    27.5                3.044748e-03 3.865227e-03 5.310773e-03 1.970783e-03 1.385279e-02 1.047117e-06 3.604536e-03 3.513598e-03 3.517192e-03 1.666947e-02 1.630062e-02 1.114049e-02 
    28.5                2.976546e-03 3.686750e-03 5.106928e-03 1.873450e-03 1.325135e-02 8.931663e-07 3.447300e-03 3.251030e-03 3.254807e-03 1.593067e-02 1.558861e-02 1.071044e-02 
    29.5                2.761245e-03 3.546949e-03 4.845303e-03 1.760762e-03 1.254474e-02 7.546062e-07 3.259269e-03 2.945887e-03 2.948914e-03 1.506321e-02 1.472922e-02 1.013608e-02 
    30.5                2.689372e-03 3.284998e-03 4.604683e-03 1.628384e-03 1.195771e-02 6.329116e-07 3.057548e-03 2.727775e-03 2.730272e-03 1.430719e-02 1.399536e-02 9.580858e-03 
    31.5                2.680219e-03 3.174916e-03 4.512772e-03 1.596178e-03 1.158907e-02 5.541927e-07 2.998582e-03 2.562427e-03 2.564769e-03 1.387924e-02 1.356602e-02 9.391289e-03 
    32.5                2.573941e-03 3.087575e-03 4.294972e-03 1.555224e-03 1.088504e-02 4.588155e-07 2.884715e-03 2.350566e-03 2.352866e-03 1.309113e-02 1.280230e-02 9.036269e-03 
    33.5                2.631025e-03 2.998076e-03 4.220307e-03 1.567836e-03 1.051731e-02 4.289808e-07 2.868631e-03 2.171826e-03 2.174567e-03 1.271543e-02 1.243631e-02 8.961364e-03 
    34.5                2.632536e-03 3.052192e-03 4.285207e-03 1.572053e-03 1.058681e-02 3.774835e-07 2.890799e-03 2.087121e-03 2.088638e-03 1.279977e-02 1.251011e-02 9.060140e-03 
    35.5                2.539008e-03 2.936824e-03 4.049910e-03 1.537711e-03 9.747179e-03 3.200975e-07 2.764307e-03 1.950186e-03 1.951235e-03 1.189356e-02 1.163408e-02 8.685000e-03 
    36.5                2.591875e-03 2.841901e-03 4.013730e-03 1.549889e-03 9.505736e-03 2.677121e-07 2.755525e-03 1.820813e-03 1.822056e-03 1.166057e-02 1.138823e-02 8.635569e-03 
    37.5                2.667868e-03 2.961664e-03 4.098021e-03 1.589382e-03 9.603646e-03 2.109212e-07 2.814314e-03 1.762938e-03 1.763707e-03 1.181535e-02 1.158708e-02 8.888954e-03 
    38.5                2.863783e-03 2.877477e-03 4.134571e-03 1.670597e-03 9.382395e-03 1.625443e-07 2.879146e-03 1.691139e-03 1.692045e-03 1.169944e-02 1.145097e-02 9.062879e-03 
    39.5                2.757610e-03 3.102273e-03 4.202020e-03 1.756389e-03 9.305302e-03 1.318999e-07 2.966749e-03 1.640278e-03 1.640827e-03 1.172608e-02 1.145654e-02 9.277000e-03 
    40.5                2.842470e-03 3.047973e-03 4.152500e-03 1.749503e-03 9.124843e-03 1.331605e-07 2.939945e-03 1.572511e-03 1.573253e-03 1.152735e-02 1.132311e-02 9.263758e-03 
    41.5                3.146231e-03 3.082759e-03 4.313139e-03 1.936420e-03 9.155649e-03 3.141188e-07 3.142843e-03 1.554780e-03 1.556498e-03 1.179273e-02 1.156373e-02 9.796555e-03 
    42.5                3.054438e-03 3.363137e-03 4.372140e-03 2.099894e-03 8.918181e-03 5.062399e-07 3.288436e-03 1.548482e-03 1.550742e-03 1.175696e-02 1.150497e-02 1.012253e-02 
    43.5                3.229234e-03 3.269766e-03 4.265362e-03 2.121671e-03 8.498607e-03 4.593764e-07 3.261637e-03 1.500385e-03 1.503003e-03 1.136068e-02 1.122433e-02 1.011778e-02 
    44.5                3.545910e-03 3.422442e-03 4.616346e-03 2.345309e-03 8.850581e-03 2.961155e-07 3.545570e-03 1.546239e-03 1.548318e-03 1.204203e-02 1.182079e-02 1.094182e-02 
    45.5                3.530455e-03 3.771441e-03 4.755694e-03 2.437904e-03 8.883203e-03 3.129946e-07 3.651453e-03 1.549510e-03 1.550804e-03 1.222435e-02 1.207859e-02 1.138147e-02 
    46.5                3.628791e-03 3.691519e-03 4.724371e-03 2.546128e-03 8.643518e-03 6.401839e-07 3.733115e-03 1.515124e-03 1.517924e-03 1.210417e-02 1.192134e-02 1.145985e-02 
    47.5                3.874285e-03 3.846092e-03 4.838453e-03 2.760668e-03 8.581806e-03 1.077600e-06 3.947065e-03 1.540368e-03 1.544301e-03 1.233033e-02 1.219722e-02 1.203189e-02 
    48.5                4.252101e-03 3.939841e-03 5.071468e-03 3.066829e-03 8.545978e-03 1.272520e-06 4.260149e-03 1.589941e-03 1.595430e-03 1.273362e-02 1.253512e-02 1.282577e-02 
    49.5                4.667852e-03 4.370417e-03 5.447401e-03 3.379894e-03 8.824501e-03 1.539355e-06 4.625551e-03 1.650385e-03 1.655624e-03 1.347874e-02 1.340320e-02 1.402623e-02 
    50.5                5.358456e-03 4.651525e-03 5.964586e-03 3.869466e-03 9.144994e-03 1.884337e-06 5.176902e-03 1.735448e-03 1.741808e-03 1.451895e-02 1.441829e-02 1.558354e-02 
    51.5                5.930031e-03 5.326750e-03 6.590464e-03 4.671419e-03 9.446507e-03 3.582050e-06 6.038992e-03 1.826820e-03 1.837707e-03 1.593922e-02 1.567384e-02 1.769213e-02 
    52.5                5.955831e-03 6.023549e-03 6.786791e-03 5.195594e-03 9.267434e-03 5.359495e-06 6.549609e-03 1.882455e-03 1.897493e-03 1.644778e-02 1.618553e-02 1.882188e-02 
    53.5                6.067322e-03 6.157037e-03 6.694845e-03 5.516810e-03 8.866407e-03 6.690458e-06 6.820259e-03 1.903857e-03 1.924060e-03 1.638675e-02 1.615489e-02 1.919385e-02 
    54.5                5.720019e-03 6.307926e-03 6.515515e-03 5.653636e-03 8.391409e-03 8.022153e-06 6.891506e-03 1.890093e-03 1.912502e-03 1.604618e-02 1.569330e-02 1.901510e-02 
    55.5                5.793506e-03 6.241875e-03 6.315448e-03 5.624050e-03 8.005524e-03 8.531745e-06 6.807133e-03 1.868679e-03 1.891544e-03 1.559912e-02 1.544754e-02 1.882621e-02 
    56.5                5.522516e-03 6.123085e-03 6.081966e-03 5.604385e-03 7.619026e-03 8.170013e-06 6.736883e-03 1.830348e-03 1.854661e-03 1.510582e-02 1.487870e-02 1.831653e-02 
    57.5                5.040430e-03 5.891915e-03 5.585520e-03 5.284695e-03 6.922214e-03 7.491279e-06 6.318563e-03 1.741914e-03 1.765345e-03 1.393769e-02 1.381796e-02 1.712468e-02 
    58.5                4.837712e-03 5.430402e-03 5.227229e-03 4.997608e-03 6.256317e-03 7.521315e-06 5.937495e-03 1.617186e-03 1.638334e-03 1.294869e-02 1.282249e-02 1.609067e-02 
    59.5                4.617180e-03 5.135446e-03 4.982223e-03 4.796495e-03 5.762594e-03 7.497781e-06 5.667934e-03 1.488237e-03 1.507958e-03 1.223861e-02 1.207668e-02 1.533448e-02 
    60.5                4.217273e-03 4.962379e-03 4.620239e-03 4.601210e-03 5.212147e-03 8.119489e-06 5.391365e-03 1.334795e-03 1.354307e-03 1.141766e-02 1.124265e-02 1.445369e-02 
    61.5                3.693679e-03 4.506312e-03 4.094769e-03 4.300718e-03 4.467870e-03 8.132837e-06 4.980551e-03 1.171733e-03 1.191297e-03 1.022837e-02 9.952433e-03 1.304145e-02 
    62.5                3.024550e-03 4.167628e-03 3.438963e-03 3.758260e-03 3.706307e-03 7.326560e-06 4.323833e-03 1.003545e-03 1.021229e-03 8.699169e-03 8.596051e-03 1.129831e-02 
    63.5                2.474818e-03 3.410718e-03 2.781904e-03 3.119203e-03 2.929254e-03 6.285959e-06 3.568569e-03 8.283103e-04 8.433154e-04 7.062878e-03 6.986549e-03 9.255019e-03 
    64.5                1.981081e-03 2.812996e-03 2.235695e-03 2.567740e-03 2.319476e-03 5.304087e-06 2.923983e-03 6.577729e-04 6.701823e-04 5.712546e-03 5.651090e-03 7.538771e-03 
    65.5                1.523266e-03 2.237374e-03 1.726728e-03 2.084228e-03 1.752980e-03 4.533713e-06 2.354202e-03 4.983261e-04 5.089854e-04 4.482576e-03 4.401591e-03 5.947474e-03 
    66.5                1.086109e-03 1.800321e-03 1.275383e-03 1.626076e-03 1.280886e-03 3.566024e-06 1.824012e-03 3.582703e-04 3.670532e-04 3.381998e-03 3.344521e-03 4.543703e-03 
    67.5                7.021561e-04 1.324766e-03 8.606620e-04 1.167337e-03 8.451322e-04 2.828898e-06 1.297956e-03 2.346430e-04 2.412894e-04 2.338092e-03 2.322575e-03 3.184310e-03 
    68.5                4.021946e-04 8.955947e-04 5.159295e-04 7.881812e-04 5.013801e-04 2.116903e-06 8.649363e-04 1.359388e-04 1.409061e-04 1.482490e-03 1.469212e-03 2.043448e-03 
    69.5                1.825416e-04 5.517703e-04 2.546926e-04 4.676177e-04 2.577812e-04 1.336199e-06 5.067235e-04 6.597669e-05 6.940200e-05 8.108874e-04 8.188169e-04 1.141994e-03 
    70.5                4.775862e-05 2.792609e-04 8.958740e-05 2.133989e-04 1.028723e-04 5.758376e-07 2.288195e-04 2.460176e-05 2.640006e-05 3.367549e-04 3.589213e-04 4.935972e-04 
    71.5                6.089907e-06 1.013890e-04 1.962585e-05 5.943194e-05 2.735491e-05 1.460429e-07 6.363923e-05 6.072911e-06 6.621340e-06 8.781698e-05 1.145012e-04 1.459644e-04 
    72.5                1.279289e-07 1.788287e-05 2.086241e-06 8.576218e-06 3.577728e-06 2.272669e-08 9.163508e-06 8.508042e-07 9.359502e-07 1.171472e-05 1.875632e-05 2.261666e-05 
    73.5                0.000000e+00 1.419785e-06 7.304788e-08 4.433628e-07 1.512848e-07 2.490892e-09 4.744762e-07 3.617183e-08 4.074188e-08 5.527714e-07 1.434817e-06 1.560238e-06 
    74.5                0.000000e+00 0.000000e+00 0.000000e+00 0.000000e+00 0.000000e+00 0.000000e+00 0.000000e+00 0.000000e+00 0.000000e+00 0.000000e+00 0.000000e+00 0.000000e+00 
    75.5                0.000000e+00 0.000000e+00 0.000000e+00 0.000000e+00 0.000000e+00 0.000000e+00 0.000000e+00 0.000000e+00 0.000000e+00 0.000000e+00 0.000000e+00 0.000000e+00 
    76.5                0.000000e+00 0.000000e+00 0.000000e+00 0.000000e+00 0.000000e+00 0.000000e+00 0.000000e+00 0.000000e+00 0.000000e+00 0.000000e+00 0.000000e+00 0.000000e+00 
    77.5                0.000000e+00 0.000000e+00 0.000000e+00 0.000000e+00 0.000000e+00 0.000000e+00 0.000000e+00 0.000000e+00 0.000000e+00 0.000000e+00 0.000000e+00 0.000000e+00 
    78.5                0.000000e+00 0.000000e+00 0.000000e+00 0.000000e+00 0.000000e+00 0.000000e+00 0.000000e+00 0.000000e+00 0.000000e+00 0.000000e+00 0.000000e+00 0.000000e+00 
    79.5                0.000000e+00 0.000000e+00 0.000000e+00 0.000000e+00 0.000000e+00 0.000000e+00 0.000000e+00 0.000000e+00 0.000000e+00 0.000000e+00 0.000000e+00 0.000000e+00 


