# 80 rows of flux data
# 12 columns of flux data
# 
# total cross-sectional flux  2.311248e+00 /m^2/yr
#
#                             +x ram      -x wake      +y port -y starboard    +z zenith     -z nadir        Earth          Sun     anti-Sun      rot (x)      rot (y)      rot (z) 
# average speed (km/s)         24.48        24.47        25.14        17.22        24.13        23.53        24.47        24.97        24.97        23.96        24.35        24.40 
# total flux (#/m2/yr)  7.041101e-01 7.036430e-01 1.001753e+00 1.228757e-01 9.650402e-01 7.862156e-04 6.977076e-01 1.008077e+00 1.008319e+00 1.567004e+00 1.885851e+00 1.996381e+00 
# velocity (km/s)
     0.5                0.000000e+00 0.000000e+00 0.000000e+00 0.000000e+00 0.000000e+00 0.000000e+00 0.000000e+00 0.000000e+00 0.000000e+00 0.000000e+00 0.000000e+00 0.000000e+00 
     1.5                0.000000e+00 0.000000e+00 0.000000e+00 0.000000e+00 0.000000e+00 0.000000e+00 0.000000e+00 0.000000e+00 0.000000e+00 0.000000e+00 0.000000e+00 0.000000e+00 
     2.5                8.113492e-07 8.174244e-07 0.000000e+00 2.142795e-06 1.628674e-07 6.686099e-09 8.074746e-07 5.433205e-07 5.287721e-07 2.156902e-06 1.668472e-06 2.844226e-06 
     3.5                4.552146e-05 4.575508e-05 5.737446e-06 4.636218e-05 2.281922e-05 1.018840e-07 4.536539e-05 2.510743e-05 2.507131e-05 6.217247e-05 9.650930e-05 1.152843e-04 
     4.5                2.752390e-04 2.762041e-04 1.608458e-04 2.242662e-04 2.537695e-04 4.517811e-07 2.743746e-04 1.635852e-04 1.633592e-04 5.027055e-04 6.494275e-04 7.397174e-04 
     5.5                9.790070e-04 9.829325e-04 7.342276e-04 7.268773e-04 1.062869e-03 1.510914e-06 9.758814e-04 6.633870e-04 6.625758e-04 1.983095e-03 2.413087e-03 2.694629e-03 
     6.5                2.363899e-03 2.368190e-03 2.423356e-03 1.425931e-03 3.100241e-03 3.102507e-06 2.355768e-03 1.865102e-03 1.865253e-03 5.450024e-03 6.190405e-03 6.741025e-03 
     7.5                4.142037e-03 4.146950e-03 4.470335e-03 2.508670e-03 5.708993e-03 5.735491e-06 4.126209e-03 3.580739e-03 3.580472e-03 9.970052e-03 1.106580e-02 1.199609e-02 
     8.5                6.779261e-03 6.782520e-03 7.489928e-03 3.616051e-03 9.392299e-03 9.513309e-06 6.750901e-03 6.053178e-03 6.053962e-03 1.613296e-02 1.817398e-02 1.938528e-02 
     9.5                9.922672e-03 9.925019e-03 1.161255e-02 5.151057e-03 1.414004e-02 1.307182e-05 9.879188e-03 9.318927e-03 9.320531e-03 2.425151e-02 2.683577e-02 2.874834e-02 
    10.5                1.246640e-02 1.245999e-02 1.549880e-02 6.426692e-03 1.897284e-02 1.576419e-05 1.240458e-02 1.299200e-02 1.299452e-02 3.210367e-02 3.457021e-02 3.679933e-02 
    11.5                1.460752e-02 1.460465e-02 1.796014e-02 7.408908e-03 2.255252e-02 1.884081e-05 1.451945e-02 1.673307e-02 1.673468e-02 3.765796e-02 4.078650e-02 4.289639e-02 
    12.5                1.632366e-02 1.631680e-02 2.059963e-02 7.848685e-03 2.563897e-02 2.113248e-05 1.621201e-02 2.014392e-02 2.014792e-02 4.241264e-02 4.596563e-02 4.803632e-02 
    13.5                1.761992e-02 1.761194e-02 2.222369e-02 8.161356e-03 2.751992e-02 2.280060e-05 1.748533e-02 2.288210e-02 2.288632e-02 4.526431e-02 4.955896e-02 5.157456e-02 
    14.5                1.948685e-02 1.947653e-02 2.463251e-02 8.053711e-03 2.961741e-02 2.494899e-05 1.932649e-02 2.609541e-02 2.610037e-02 4.854777e-02 5.427351e-02 5.634381e-02 
    15.5                2.120747e-02 2.120219e-02 2.749710e-02 7.804923e-03 3.149686e-02 2.708740e-05 2.102489e-02 2.918737e-02 2.919371e-02 5.181704e-02 5.858363e-02 6.117053e-02 
    16.5                2.293692e-02 2.292336e-02 3.041129e-02 7.509398e-03 3.360615e-02 2.840484e-05 2.273117e-02 3.229770e-02 3.230484e-02 5.519809e-02 6.300252e-02 6.593622e-02 
    17.5                2.426101e-02 2.425093e-02 3.264019e-02 6.906108e-03 3.486854e-02 3.006641e-05 2.403634e-02 3.475923e-02 3.476674e-02 5.720147e-02 6.618499e-02 6.933994e-02 
    18.5                2.555647e-02 2.554512e-02 3.486656e-02 6.314985e-03 3.596108e-02 3.100890e-05 2.531293e-02 3.723561e-02 3.724332e-02 5.901898e-02 6.917045e-02 7.269874e-02 
    19.5                2.663107e-02 2.661502e-02 3.694086e-02 5.860183e-03 3.711620e-02 3.157785e-05 2.637091e-02 3.937992e-02 3.938863e-02 6.088777e-02 7.180333e-02 7.565920e-02 
    20.5                2.716282e-02 2.714918e-02 3.814439e-02 5.235196e-03 3.750388e-02 3.198758e-05 2.689335e-02 4.061925e-02 4.062919e-02 6.139995e-02 7.301020e-02 7.700268e-02 
    21.5                2.781278e-02 2.779980e-02 3.919418e-02 4.715257e-03 3.767940e-02 3.245830e-05 2.753500e-02 4.171937e-02 4.173062e-02 6.167857e-02 7.423865e-02 7.846499e-02 
    22.5                2.876745e-02 2.875216e-02 4.074654e-02 4.317867e-03 3.860773e-02 3.313777e-05 2.847790e-02 4.329281e-02 4.330279e-02 6.300527e-02 7.653178e-02 8.090408e-02 
    23.5                2.937067e-02 2.935490e-02 4.218339e-02 3.766041e-03 3.921250e-02 3.317679e-05 2.907342e-02 4.444505e-02 4.445663e-02 6.388702e-02 7.797808e-02 8.255616e-02 
    24.5                2.951061e-02 2.949379e-02 4.271567e-02 3.301955e-03 3.913623e-02 3.286617e-05 2.921112e-02 4.473347e-02 4.474377e-02 6.364403e-02 7.816642e-02 8.285667e-02 
    25.5                2.954255e-02 2.952507e-02 4.303367e-02 2.814862e-03 3.893688e-02 3.233226e-05 2.924397e-02 4.474203e-02 4.475243e-02 6.311072e-02 7.807702e-02 8.279153e-02 
    26.5                2.935839e-02 2.933863e-02 4.310352e-02 2.414425e-03 3.853931e-02 3.159475e-05 2.906261e-02 4.446761e-02 4.447868e-02 6.230956e-02 7.747612e-02 8.224448e-02 
    27.5                2.859356e-02 2.857370e-02 4.237609e-02 2.040979e-03 3.756935e-02 3.021846e-05 2.830672e-02 4.334212e-02 4.335432e-02 6.054750e-02 7.547715e-02 8.017675e-02 
    28.5                2.776119e-02 2.774095e-02 4.117393e-02 1.735554e-03 3.623033e-02 2.912615e-05 2.748470e-02 4.191575e-02 4.192466e-02 5.824993e-02 7.311215e-02 7.769289e-02 
    29.5                2.680747e-02 2.678663e-02 4.001502e-02 1.449780e-03 3.498101e-02 2.764790e-05 2.654265e-02 4.039587e-02 4.040721e-02 5.608161e-02 7.058110e-02 7.504486e-02 
    30.5                2.551771e-02 2.549845e-02 3.828753e-02 1.181460e-03 3.326820e-02 2.605396e-05 2.526823e-02 3.834920e-02 3.835839e-02 5.319979e-02 6.717003e-02 7.144622e-02 
    31.5                2.410448e-02 2.408385e-02 3.634269e-02 9.490743e-04 3.140298e-02 2.429864e-05 2.387086e-02 3.608955e-02 3.609937e-02 5.007851e-02 6.342695e-02 6.750116e-02 
    32.5                2.248621e-02 2.246601e-02 3.406784e-02 7.537629e-04 2.929674e-02 2.240219e-05 2.227102e-02 3.351490e-02 3.352418e-02 4.659550e-02 5.916595e-02 6.299944e-02 
    33.5                2.065219e-02 2.063045e-02 3.149358e-02 6.035057e-04 2.698503e-02 2.025614e-05 2.045734e-02 3.063683e-02 3.064461e-02 4.281917e-02 5.438223e-02 5.794170e-02 
    34.5                1.856637e-02 1.854781e-02 2.847450e-02 4.709695e-04 2.433031e-02 1.804444e-05 1.839435e-02 2.740336e-02 2.740990e-02 3.852642e-02 4.893599e-02 5.216038e-02 
    35.5                1.647567e-02 1.645667e-02 2.539604e-02 3.543309e-04 2.163896e-02 1.581895e-05 1.632521e-02 2.418495e-02 2.419299e-02 3.419157e-02 4.345217e-02 4.633329e-02 
    36.5                1.438396e-02 1.436712e-02 2.227149e-02 2.577697e-04 1.892582e-02 1.369081e-05 1.425523e-02 2.097456e-02 2.097935e-02 2.984122e-02 3.795639e-02 4.049050e-02 
    37.5                1.238105e-02 1.236514e-02 1.927058e-02 1.848614e-04 1.633987e-02 1.161350e-05 1.227235e-02 1.792397e-02 1.792944e-02 2.571190e-02 3.269805e-02 3.489614e-02 
    38.5                1.042220e-02 1.040730e-02 1.631994e-02 1.280248e-04 1.381241e-02 9.648827e-06 1.033244e-02 1.498800e-02 1.499273e-02 2.169574e-02 2.756057e-02 2.942657e-02 
    39.5                8.523621e-03 8.510772e-03 1.348943e-02 8.437122e-05 1.139695e-02 7.722850e-06 8.452008e-03 1.219239e-02 1.219605e-02 1.787206e-02 2.260229e-02 2.415111e-02 
    40.5                6.673408e-03 6.661286e-03 1.069307e-02 5.318251e-05 9.022354e-03 5.898313e-06 6.618721e-03 9.494923e-03 9.497894e-03 1.412671e-02 1.775894e-02 1.899209e-02 
    41.5                4.975478e-03 4.965673e-03 8.089328e-03 3.157891e-05 6.818184e-03 4.274109e-06 4.935840e-03 7.050047e-03 7.052138e-03 1.066109e-02 1.329944e-02 1.423675e-02 
    42.5                3.534107e-03 3.526829e-03 5.811022e-03 1.791981e-05 4.893880e-03 2.973708e-06 3.506695e-03 4.979706e-03 4.981091e-03 7.643242e-03 9.480182e-03 1.015618e-02 
    43.5                2.388920e-03 2.382945e-03 3.996088e-03 9.559018e-06 3.363309e-03 1.932517e-06 2.370879e-03 3.353201e-03 3.354626e-03 5.247630e-03 6.442397e-03 6.909481e-03 
    44.5                1.465806e-03 1.461762e-03 2.534713e-03 4.484293e-06 2.132072e-03 1.109462e-06 1.455155e-03 2.067423e-03 2.068182e-03 3.323832e-03 3.997669e-03 4.296582e-03 
    45.5                7.862592e-04 7.836469e-04 1.413678e-03 1.827678e-06 1.188590e-03 5.409989e-07 7.808065e-04 1.117648e-03 1.118014e-03 1.851684e-03 2.173460e-03 2.341806e-03 
    46.5                3.445161e-04 3.431520e-04 6.590205e-04 5.935800e-07 5.538521e-04 2.018060e-07 3.422833e-04 5.002491e-04 5.005903e-04 8.624391e-04 9.739978e-04 1.053606e-03 
    47.5                1.084912e-04 1.080357e-04 2.263272e-04 1.336195e-07 1.901358e-04 5.318809e-08 1.078484e-04 1.637995e-04 1.638714e-04 2.959786e-04 3.177125e-04 3.456453e-04 
    48.5                2.361889e-05 2.351194e-05 5.445874e-05 1.833398e-08 4.573412e-05 7.939672e-09 2.349511e-05 3.740941e-05 3.745009e-05 7.117588e-05 7.213817e-05 7.899984e-05 
    49.5                2.780322e-06 2.772259e-06 7.549327e-06 5.885662e-10 6.337236e-06 2.752265e-10 2.769268e-06 4.838812e-06 4.846725e-06 9.861059e-06 9.146668e-06 1.012484e-05 
    50.5                5.340387e-08 5.397297e-08 2.164765e-07 0.000000e+00 1.816658e-07 0.000000e+00 5.344109e-08 1.240085e-07 1.238950e-07 2.826738e-07 2.206641e-07 2.508240e-07 
    51.5                0.000000e+00 0.000000e+00 0.000000e+00 0.000000e+00 0.000000e+00 0.000000e+00 0.000000e+00 0.000000e+00 0.000000e+00 0.000000e+00 0.000000e+00 0.000000e+00 
    52.5                0.000000e+00 0.000000e+00 0.000000e+00 0.000000e+00 0.000000e+00 0.000000e+00 0.000000e+00 0.000000e+00 0.000000e+00 0.000000e+00 0.000000e+00 0.000000e+00 
    53.5                0.000000e+00 0.000000e+00 0.000000e+00 0.000000e+00 0.000000e+00 0.000000e+00 0.000000e+00 0.000000e+00 0.000000e+00 0.000000e+00 0.000000e+00 0.000000e+00 
    54.5                0.000000e+00 0.000000e+00 0.000000e+00 0.000000e+00 0.000000e+00 0.000000e+00 0.000000e+00 0.000000e+00 0.000000e+00 0.000000e+00 0.000000e+00 0.000000e+00 
    55.5                0.000000e+00 0.000000e+00 0.000000e+00 0.000000e+00 0.000000e+00 0.000000e+00 0.000000e+00 0.000000e+00 0.000000e+00 0.000000e+00 0.000000e+00 0.000000e+00 
    56.5                0.000000e+00 0.000000e+00 0.000000e+00 0.000000e+00 0.000000e+00 0.000000e+00 0.000000e+00 0.000000e+00 0.000000e+00 0.000000e+00 0.000000e+00 0.000000e+00 
    57.5                0.000000e+00 0.000000e+00 0.000000e+00 0.000000e+00 0.000000e+00 0.000000e+00 0.000000e+00 0.000000e+00 0.000000e+00 0.000000e+00 0.000000e+00 0.000000e+00 
    58.5                0.000000e+00 0.000000e+00 0.000000e+00 0.000000e+00 0.000000e+00 0.000000e+00 0.000000e+00 0.000000e+00 0.000000e+00 0.000000e+00 0.000000e+00 0.000000e+00 
    59.5                0.000000e+00 0.000000e+00 0.000000e+00 0.000000e+00 0.000000e+00 0.000000e+00 0.000000e+00 0.000000e+00 0.000000e+00 0.000000e+00 0.000000e+00 0.000000e+00 
    60.5                0.000000e+00 0.000000e+00 0.000000e+00 0.000000e+00 0.000000e+00 0.000000e+00 0.000000e+00 0.000000e+00 0.000000e+00 0.000000e+00 0.000000e+00 0.000000e+00 
    61.5                0.000000e+00 0.000000e+00 0.000000e+00 0.000000e+00 0.000000e+00 0.000000e+00 0.000000e+00 0.000000e+00 0.000000e+00 0.000000e+00 0.000000e+00 0.000000e+00 
    62.5                0.000000e+00 0.000000e+00 0.000000e+00 0.000000e+00 0.000000e+00 0.000000e+00 0.000000e+00 0.000000e+00 0.000000e+00 0.000000e+00 0.000000e+00 0.000000e+00 
    63.5                0.000000e+00 0.000000e+00 0.000000e+00 0.000000e+00 0.000000e+00 0.000000e+00 0.000000e+00 0.000000e+00 0.000000e+00 0.000000e+00 0.000000e+00 0.000000e+00 
    64.5                0.000000e+00 0.000000e+00 0.000000e+00 0.000000e+00 0.000000e+00 0.000000e+00 0.000000e+00 0.000000e+00 0.000000e+00 0.000000e+00 0.000000e+00 0.000000e+00 
    65.5                0.000000e+00 0.000000e+00 0.000000e+00 0.000000e+00 0.000000e+00 0.000000e+00 0.000000e+00 0.000000e+00 0.000000e+00 0.000000e+00 0.000000e+00 0.000000e+00 
    66.5                0.000000e+00 0.000000e+00 0.000000e+00 0.000000e+00 0.000000e+00 0.000000e+00 0.000000e+00 0.000000e+00 0.000000e+00 0.000000e+00 0.000000e+00 0.000000e+00 
    67.5                0.000000e+00 0.000000e+00 0.000000e+00 0.000000e+00 0.000000e+00 0.000000e+00 0.000000e+00 0.000000e+00 0.000000e+00 0.000000e+00 0.000000e+00 0.000000e+00 
    68.5                0.000000e+00 0.000000e+00 0.000000e+00 0.000000e+00 0.000000e+00 0.000000e+00 0.000000e+00 0.000000e+00 0.000000e+00 0.000000e+00 0.000000e+00 0.000000e+00 
    69.5                0.000000e+00 0.000000e+00 0.000000e+00 0.000000e+00 0.000000e+00 0.000000e+00 0.000000e+00 0.000000e+00 0.000000e+00 0.000000e+00 0.000000e+00 0.000000e+00 
    70.5                0.000000e+00 0.000000e+00 0.000000e+00 0.000000e+00 0.000000e+00 0.000000e+00 0.000000e+00 0.000000e+00 0.000000e+00 0.000000e+00 0.000000e+00 0.000000e+00 
    71.5                0.000000e+00 0.000000e+00 0.000000e+00 0.000000e+00 0.000000e+00 0.000000e+00 0.000000e+00 0.000000e+00 0.000000e+00 0.000000e+00 0.000000e+00 0.000000e+00 
    72.5                0.000000e+00 0.000000e+00 0.000000e+00 0.000000e+00 0.000000e+00 0.000000e+00 0.000000e+00 0.000000e+00 0.000000e+00 0.000000e+00 0.000000e+00 0.000000e+00 
    73.5                0.000000e+00 0.000000e+00 0.000000e+00 0.000000e+00 0.000000e+00 0.000000e+00 0.000000e+00 0.000000e+00 0.000000e+00 0.000000e+00 0.000000e+00 0.000000e+00 
    74.5                0.000000e+00 0.000000e+00 0.000000e+00 0.000000e+00 0.000000e+00 0.000000e+00 0.000000e+00 0.000000e+00 0.000000e+00 0.000000e+00 0.000000e+00 0.000000e+00 
    75.5                0.000000e+00 0.000000e+00 0.000000e+00 0.000000e+00 0.000000e+00 0.000000e+00 0.000000e+00 0.000000e+00 0.000000e+00 0.000000e+00 0.000000e+00 0.000000e+00 
    76.5                0.000000e+00 0.000000e+00 0.000000e+00 0.000000e+00 0.000000e+00 0.000000e+00 0.000000e+00 0.000000e+00 0.000000e+00 0.000000e+00 0.000000e+00 0.000000e+00 
    77.5                0.000000e+00 0.000000e+00 0.000000e+00 0.000000e+00 0.000000e+00 0.000000e+00 0.000000e+00 0.000000e+00 0.000000e+00 0.000000e+00 0.000000e+00 0.000000e+00 
    78.5                0.000000e+00 0.000000e+00 0.000000e+00 0.000000e+00 0.000000e+00 0.000000e+00 0.000000e+00 0.000000e+00 0.000000e+00 0.000000e+00 0.000000e+00 0.000000e+00 
    79.5                0.000000e+00 0.000000e+00 0.000000e+00 0.000000e+00 0.000000e+00 0.000000e+00 0.000000e+00 0.000000e+00 0.000000e+00 0.000000e+00 0.000000e+00 0.000000e+00 


