# 80 rows of flux data
# 12 columns of flux data
# 
# total cross-sectional flux  2.166792e+00 /m^2/yr
#
#                             +x ram      -x wake      +y port -y starboard    +z zenith     -z nadir        Earth          Sun     anti-Sun      rot (x)      rot (y)      rot (z) 
# average speed (km/s)         23.83        24.65        24.35        17.31        24.07        23.47        24.35        24.66        24.67        23.60        24.19        24.02 
# total flux (#/m2/yr)  6.157134e-01 7.214197e-01 7.323541e-01 1.018566e-01 1.086643e+00 6.175622e-04 1.263960e+00 9.394434e-01 9.529166e-01 1.451846e+00 1.916177e+00 1.728908e+00 
# velocity (km/s)
     0.5                0.000000e+00 0.000000e+00 0.000000e+00 0.000000e+00 0.000000e+00 0.000000e+00 0.000000e+00 0.000000e+00 0.000000e+00 0.000000e+00 0.000000e+00 0.000000e+00 
     1.5                0.000000e+00 0.000000e+00 0.000000e+00 0.000000e+00 0.000000e+00 0.000000e+00 0.000000e+00 0.000000e+00 0.000000e+00 0.000000e+00 0.000000e+00 0.000000e+00 
     2.5                5.169240e-06 0.000000e+00 7.011170e-07 6.129092e-07 2.347824e-06 8.056532e-10 2.091575e-06 1.693057e-07 1.849698e-06 2.905035e-06 5.881448e-06 5.414014e-06 
     3.5                1.223159e-04 3.223642e-06 4.943323e-05 1.825017e-05 9.472536e-05 4.698946e-08 9.937366e-05 2.329495e-05 5.669293e-05 1.253120e-04 1.739853e-04 1.539211e-04 
     4.5                5.534963e-04 1.258835e-04 3.180904e-04 1.105780e-04 5.449630e-04 3.102323e-07 5.898133e-04 1.769720e-04 2.938469e-04 7.559528e-04 9.657925e-04 8.761369e-04 
     5.5                1.495834e-03 5.877633e-04 1.116033e-03 3.936787e-04 1.825386e-03 1.010556e-06 1.995731e-03 7.393759e-04 9.689206e-04 2.608188e-03 3.083092e-03 2.828674e-03 
     6.5                2.800148e-03 1.958032e-03 2.540704e-03 8.862620e-04 4.057743e-03 2.441189e-06 4.465606e-03 1.888923e-03 2.197292e-03 5.882257e-03 6.959644e-03 6.443366e-03 
     7.5                4.956078e-03 3.633770e-03 4.540286e-03 1.727322e-03 7.244791e-03 4.644050e-06 7.918702e-03 3.709584e-03 3.987163e-03 1.063523e-02 1.250158e-02 1.169161e-02 
     8.5                7.376821e-03 6.116911e-03 7.334284e-03 2.583386e-03 1.157438e-02 7.186286e-06 1.274248e-02 6.294066e-03 6.414544e-03 1.690006e-02 1.978257e-02 1.840019e-02 
     9.5                9.379695e-03 9.327222e-03 1.024847e-02 3.650564e-03 1.614251e-02 1.014757e-05 1.775572e-02 9.391857e-03 9.389191e-03 2.364457e-02 2.750687e-02 2.564192e-02 
    10.5                1.140213e-02 1.259413e-02 1.283255e-02 4.957528e-03 2.024760e-02 1.363759e-05 2.210849e-02 1.281641e-02 1.286518e-02 3.001112e-02 3.494032e-02 3.286182e-02 
    11.5                1.308431e-02 1.483655e-02 1.509613e-02 6.092829e-03 2.390516e-02 1.618844e-05 2.595822e-02 1.616750e-02 1.631949e-02 3.554325e-02 4.092826e-02 3.860819e-02 
    12.5                1.432860e-02 1.700436e-02 1.666249e-02 6.910494e-03 2.660150e-02 1.797855e-05 2.872494e-02 1.918079e-02 1.938100e-02 3.943105e-02 4.574411e-02 4.318247e-02 
    13.5                1.626378e-02 1.826871e-02 1.826880e-02 7.373553e-03 2.920223e-02 1.942712e-05 3.157070e-02 2.210490e-02 2.233405e-02 4.297053e-02 5.031364e-02 4.739378e-02 
    14.5                1.795247e-02 1.991991e-02 2.028307e-02 7.305054e-03 3.208798e-02 2.045063e-05 3.504671e-02 2.520142e-02 2.547918e-02 4.657580e-02 5.524129e-02 5.163739e-02 
    15.5                1.949536e-02 2.162862e-02 2.216168e-02 6.932439e-03 3.462851e-02 2.140605e-05 3.827912e-02 2.814626e-02 2.845357e-02 4.951845e-02 5.983733e-02 5.549219e-02 
    16.5                2.089389e-02 2.347917e-02 2.400331e-02 6.569221e-03 3.702782e-02 2.255770e-05 4.138794e-02 3.092623e-02 3.126200e-02 5.234589e-02 6.431343e-02 5.931694e-02 
    17.5                2.223908e-02 2.480801e-02 2.549839e-02 6.074766e-03 3.893235e-02 2.334851e-05 4.395745e-02 3.340317e-02 3.376212e-02 5.438810e-02 6.794165e-02 6.229575e-02 
    18.5                2.321046e-02 2.602217e-02 2.690294e-02 5.398364e-03 4.060559e-02 2.382356e-05 4.634616e-02 3.559119e-02 3.597159e-02 5.602801e-02 7.100483e-02 6.469401e-02 
    19.5                2.394040e-02 2.719589e-02 2.794459e-02 4.935239e-03 4.186806e-02 2.436385e-05 4.812446e-02 3.735304e-02 3.775434e-02 5.726872e-02 7.352546e-02 6.674858e-02 
    20.5                2.460310e-02 2.779783e-02 2.865582e-02 4.413949e-03 4.266393e-02 2.443636e-05 4.934699e-02 3.855604e-02 3.898403e-02 5.780474e-02 7.516178e-02 6.797438e-02 
    21.5                2.560652e-02 2.825110e-02 2.955377e-02 3.866495e-03 4.366580e-02 2.477151e-05 5.087931e-02 3.987149e-02 4.033601e-02 5.862962e-02 7.710721e-02 6.946136e-02 
    22.5                2.622972e-02 2.914660e-02 3.054010e-02 3.517704e-03 4.493931e-02 2.501953e-05 5.258871e-02 4.123518e-02 4.173817e-02 5.988112e-02 7.932247e-02 7.124490e-02 
    23.5                2.646750e-02 2.991053e-02 3.107235e-02 3.038199e-03 4.548689e-02 2.514405e-05 5.351546e-02 4.200625e-02 4.253912e-02 6.013805e-02 8.055006e-02 7.214454e-02 
    24.5                2.659388e-02 3.006667e-02 3.124925e-02 2.644986e-03 4.557462e-02 2.500009e-05 5.383092e-02 4.221888e-02 4.278229e-02 5.983666e-02 8.084780e-02 7.225105e-02 
    25.5                2.647074e-02 3.011420e-02 3.127343e-02 2.246417e-03 4.544915e-02 2.467898e-05 5.389238e-02 4.213908e-02 4.272720e-02 5.923861e-02 8.069161e-02 7.194529e-02 
    26.5                2.580150e-02 2.997576e-02 3.086102e-02 1.926384e-03 4.474654e-02 2.409268e-05 5.320556e-02 4.149248e-02 4.209037e-02 5.795603e-02 7.949996e-02 7.075952e-02 
    27.5                2.514263e-02 2.934936e-02 3.006378e-02 1.629393e-03 4.349743e-02 2.342411e-05 5.184767e-02 4.037793e-02 4.097659e-02 5.602839e-02 7.750467e-02 6.891475e-02 
    28.5                2.429403e-02 2.840093e-02 2.916682e-02 1.390054e-03 4.213776e-02 2.243231e-05 5.032289e-02 3.897940e-02 3.957422e-02 5.399576e-02 7.500223e-02 6.659050e-02 
    29.5                2.316421e-02 2.751381e-02 2.804007e-02 1.149986e-03 4.043882e-02 2.146192e-05 4.839383e-02 3.733200e-02 3.791856e-02 5.157063e-02 7.206532e-02 6.392111e-02 
    30.5                2.190444e-02 2.624914e-02 2.664180e-02 9.548865e-04 3.837495e-02 2.030427e-05 4.599787e-02 3.531309e-02 3.587992e-02 4.871639e-02 6.844012e-02 6.065260e-02 
    31.5                2.043237e-02 2.484687e-02 2.506064e-02 7.632169e-04 3.605155e-02 1.900094e-05 4.328474e-02 3.302848e-02 3.357036e-02 4.555497e-02 6.433113e-02 5.695879e-02 
    32.5                1.873695e-02 2.323692e-02 2.324677e-02 6.106600e-04 3.340890e-02 1.753394e-05 4.016708e-02 3.042777e-02 3.093647e-02 4.204496e-02 5.962708e-02 5.275365e-02 
    33.5                1.683070e-02 2.144406e-02 2.117834e-02 4.824381e-04 3.041039e-02 1.594838e-05 3.660489e-02 2.753649e-02 2.800246e-02 3.814253e-02 5.433102e-02 4.804826e-02 
    34.5                1.492477e-02 1.936325e-02 1.895799e-02 3.784349e-04 2.720470e-02 1.426347e-05 3.277893e-02 2.447949e-02 2.489844e-02 3.401931e-02 4.864372e-02 4.300387e-02 
    35.5                1.302659e-02 1.724856e-02 1.672071e-02 2.893168e-04 2.398047e-02 1.257862e-05 2.892056e-02 2.143490e-02 2.180592e-02 2.989787e-02 4.292090e-02 3.793326e-02 
    36.5                1.118560e-02 1.510766e-02 1.452774e-02 2.095360e-04 2.082042e-02 1.088641e-05 2.513648e-02 1.845811e-02 1.877964e-02 2.587968e-02 3.727042e-02 3.292398e-02 
    37.5                9.400135e-03 1.306004e-02 1.239872e-02 1.509676e-04 1.776050e-02 9.290166e-06 2.146057e-02 1.561473e-02 1.588939e-02 2.201786e-02 3.181753e-02 2.810064e-02 
    38.5                7.642853e-03 1.105162e-02 1.032704e-02 1.041216e-04 1.478652e-02 7.717247e-06 1.788187e-02 1.287868e-02 1.310517e-02 1.828648e-02 2.648677e-02 2.338323e-02 
    39.5                5.942322e-03 9.128518e-03 8.307445e-03 6.909812e-05 1.189020e-02 6.218728e-06 1.439049e-02 1.026566e-02 1.044392e-02 1.467375e-02 2.132943e-02 1.883034e-02 
    40.5                4.393237e-03 7.233591e-03 6.387300e-03 4.383387e-05 9.139085e-03 4.808683e-06 1.106863e-02 7.822663e-03 7.956661e-03 1.125774e-02 1.643086e-02 1.450868e-02 
    41.5                3.100091e-03 5.470665e-03 4.677791e-03 2.641843e-05 6.691506e-03 3.562981e-06 8.109263e-03 5.686929e-03 5.781542e-03 8.229511e-03 1.207830e-02 1.067194e-02 
    42.5                2.069954e-03 3.928724e-03 3.265882e-03 1.509949e-05 4.670831e-03 2.497787e-06 5.663857e-03 3.932028e-03 3.996049e-03 5.736433e-03 8.444725e-03 7.462659e-03 
    43.5                1.240266e-03 2.701755e-03 2.136984e-03 8.089123e-06 3.055735e-03 1.648112e-06 3.707532e-03 2.549835e-03 2.589579e-03 3.748645e-03 5.539393e-03 4.897322e-03 
    44.5                6.455324e-04 1.713826e-03 1.256043e-03 4.045399e-06 1.795750e-03 9.989907e-07 2.180019e-03 1.496851e-03 1.517556e-03 2.201145e-03 3.290646e-03 2.915444e-03 
    45.5                2.681042e-04 9.560220e-04 6.357592e-04 1.771280e-06 9.087739e-04 5.284720e-07 1.103908e-03 7.599743e-04 7.685886e-04 1.113258e-03 1.690201e-03 1.501877e-03 
    46.5                7.873829e-05 4.459998e-04 2.566968e-04 6.732968e-07 3.668508e-04 2.381822e-07 4.458872e-04 3.140833e-04 3.166515e-04 4.492931e-04 7.076825e-04 6.332823e-04 
    47.5                1.544189e-05 1.532545e-04 7.531497e-05 2.059399e-07 1.076143e-04 8.216680e-08 1.308793e-04 9.646341e-05 9.652679e-05 1.318096e-04 2.200769e-04 1.989901e-04 
    48.5                1.404111e-06 3.689095e-05 1.512829e-05 4.318811e-08 2.161115e-05 2.030429e-08 2.630443e-05 2.067807e-05 2.055487e-05 2.647488e-05 4.786651e-05 4.386368e-05 
    49.5                1.249425e-08 5.113653e-06 1.615153e-06 5.971553e-09 2.306433e-06 3.024810e-09 2.811339e-06 2.537909e-06 2.496356e-06 2.828446e-06 5.967575e-06 5.595916e-06 
    50.5                0.000000e+00 1.474343e-07 3.012960e-08 2.073896e-10 4.303043e-08 1.195012e-10 5.271953e-08 6.576139e-08 6.275629e-08 5.294939e-08 1.568133e-07 1.522150e-07 
    51.5                0.000000e+00 0.000000e+00 0.000000e+00 0.000000e+00 0.000000e+00 0.000000e+00 0.000000e+00 0.000000e+00 0.000000e+00 0.000000e+00 0.000000e+00 0.000000e+00 
    52.5                0.000000e+00 0.000000e+00 0.000000e+00 0.000000e+00 0.000000e+00 0.000000e+00 0.000000e+00 0.000000e+00 0.000000e+00 0.000000e+00 0.000000e+00 0.000000e+00 
    53.5                0.000000e+00 0.000000e+00 0.000000e+00 0.000000e+00 0.000000e+00 0.000000e+00 0.000000e+00 0.000000e+00 0.000000e+00 0.000000e+00 0.000000e+00 0.000000e+00 
    54.5                0.000000e+00 0.000000e+00 0.000000e+00 0.000000e+00 0.000000e+00 0.000000e+00 0.000000e+00 0.000000e+00 0.000000e+00 0.000000e+00 0.000000e+00 0.000000e+00 
    55.5                0.000000e+00 0.000000e+00 0.000000e+00 0.000000e+00 0.000000e+00 0.000000e+00 0.000000e+00 0.000000e+00 0.000000e+00 0.000000e+00 0.000000e+00 0.000000e+00 
    56.5                0.000000e+00 0.000000e+00 0.000000e+00 0.000000e+00 0.000000e+00 0.000000e+00 0.000000e+00 0.000000e+00 0.000000e+00 0.000000e+00 0.000000e+00 0.000000e+00 
    57.5                0.000000e+00 0.000000e+00 0.000000e+00 0.000000e+00 0.000000e+00 0.000000e+00 0.000000e+00 0.000000e+00 0.000000e+00 0.000000e+00 0.000000e+00 0.000000e+00 
    58.5                0.000000e+00 0.000000e+00 0.000000e+00 0.000000e+00 0.000000e+00 0.000000e+00 0.000000e+00 0.000000e+00 0.000000e+00 0.000000e+00 0.000000e+00 0.000000e+00 
    59.5                0.000000e+00 0.000000e+00 0.000000e+00 0.000000e+00 0.000000e+00 0.000000e+00 0.000000e+00 0.000000e+00 0.000000e+00 0.000000e+00 0.000000e+00 0.000000e+00 
    60.5                0.000000e+00 0.000000e+00 0.000000e+00 0.000000e+00 0.000000e+00 0.000000e+00 0.000000e+00 0.000000e+00 0.000000e+00 0.000000e+00 0.000000e+00 0.000000e+00 
    61.5                0.000000e+00 0.000000e+00 0.000000e+00 0.000000e+00 0.000000e+00 0.000000e+00 0.000000e+00 0.000000e+00 0.000000e+00 0.000000e+00 0.000000e+00 0.000000e+00 
    62.5                0.000000e+00 0.000000e+00 0.000000e+00 0.000000e+00 0.000000e+00 0.000000e+00 0.000000e+00 0.000000e+00 0.000000e+00 0.000000e+00 0.000000e+00 0.000000e+00 
    63.5                0.000000e+00 0.000000e+00 0.000000e+00 0.000000e+00 0.000000e+00 0.000000e+00 0.000000e+00 0.000000e+00 0.000000e+00 0.000000e+00 0.000000e+00 0.000000e+00 
    64.5                0.000000e+00 0.000000e+00 0.000000e+00 0.000000e+00 0.000000e+00 0.000000e+00 0.000000e+00 0.000000e+00 0.000000e+00 0.000000e+00 0.000000e+00 0.000000e+00 
    65.5                0.000000e+00 0.000000e+00 0.000000e+00 0.000000e+00 0.000000e+00 0.000000e+00 0.000000e+00 0.000000e+00 0.000000e+00 0.000000e+00 0.000000e+00 0.000000e+00 
    66.5                0.000000e+00 0.000000e+00 0.000000e+00 0.000000e+00 0.000000e+00 0.000000e+00 0.000000e+00 0.000000e+00 0.000000e+00 0.000000e+00 0.000000e+00 0.000000e+00 
    67.5                0.000000e+00 0.000000e+00 0.000000e+00 0.000000e+00 0.000000e+00 0.000000e+00 0.000000e+00 0.000000e+00 0.000000e+00 0.000000e+00 0.000000e+00 0.000000e+00 
    68.5                0.000000e+00 0.000000e+00 0.000000e+00 0.000000e+00 0.000000e+00 0.000000e+00 0.000000e+00 0.000000e+00 0.000000e+00 0.000000e+00 0.000000e+00 0.000000e+00 
    69.5                0.000000e+00 0.000000e+00 0.000000e+00 0.000000e+00 0.000000e+00 0.000000e+00 0.000000e+00 0.000000e+00 0.000000e+00 0.000000e+00 0.000000e+00 0.000000e+00 
    70.5                0.000000e+00 0.000000e+00 0.000000e+00 0.000000e+00 0.000000e+00 0.000000e+00 0.000000e+00 0.000000e+00 0.000000e+00 0.000000e+00 0.000000e+00 0.000000e+00 
    71.5                0.000000e+00 0.000000e+00 0.000000e+00 0.000000e+00 0.000000e+00 0.000000e+00 0.000000e+00 0.000000e+00 0.000000e+00 0.000000e+00 0.000000e+00 0.000000e+00 
    72.5                0.000000e+00 0.000000e+00 0.000000e+00 0.000000e+00 0.000000e+00 0.000000e+00 0.000000e+00 0.000000e+00 0.000000e+00 0.000000e+00 0.000000e+00 0.000000e+00 
    73.5                0.000000e+00 0.000000e+00 0.000000e+00 0.000000e+00 0.000000e+00 0.000000e+00 0.000000e+00 0.000000e+00 0.000000e+00 0.000000e+00 0.000000e+00 0.000000e+00 
    74.5                0.000000e+00 0.000000e+00 0.000000e+00 0.000000e+00 0.000000e+00 0.000000e+00 0.000000e+00 0.000000e+00 0.000000e+00 0.000000e+00 0.000000e+00 0.000000e+00 
    75.5                0.000000e+00 0.000000e+00 0.000000e+00 0.000000e+00 0.000000e+00 0.000000e+00 0.000000e+00 0.000000e+00 0.000000e+00 0.000000e+00 0.000000e+00 0.000000e+00 
    76.5                0.000000e+00 0.000000e+00 0.000000e+00 0.000000e+00 0.000000e+00 0.000000e+00 0.000000e+00 0.000000e+00 0.000000e+00 0.000000e+00 0.000000e+00 0.000000e+00 
    77.5                0.000000e+00 0.000000e+00 0.000000e+00 0.000000e+00 0.000000e+00 0.000000e+00 0.000000e+00 0.000000e+00 0.000000e+00 0.000000e+00 0.000000e+00 0.000000e+00 
    78.5                0.000000e+00 0.000000e+00 0.000000e+00 0.000000e+00 0.000000e+00 0.000000e+00 0.000000e+00 0.000000e+00 0.000000e+00 0.000000e+00 0.000000e+00 0.000000e+00 
    79.5                0.000000e+00 0.000000e+00 0.000000e+00 0.000000e+00 0.000000e+00 0.000000e+00 0.000000e+00 0.000000e+00 0.000000e+00 0.000000e+00 0.000000e+00 0.000000e+00 


