# 80 rows of flux data
# 12 columns of flux data
# 
# total cross-sectional flux  1.038203e+00 /m^2/yr
#
#                             +x ram      -x wake      +y port -y starboard    +z zenith     -z nadir        Earth          Sun     anti-Sun      rot (x)      rot (y)      rot (z) 
# average speed (km/s)         38.32        37.03        41.30        34.38        31.71        46.37        38.44        27.95        28.07        34.02        34.15        37.23 
# total flux (#/m2/yr)  2.150132e-01 2.560167e-01 1.740246e-01 3.128258e-01 6.052054e-01 2.221858e-04 2.737083e-01 1.673339e-01 1.682827e-01 8.604267e-01 8.388602e-01 7.517922e-01 
# velocity (km/s)
     0.5                0.000000e+00 0.000000e+00 0.000000e+00 0.000000e+00 0.000000e+00 0.000000e+00 0.000000e+00 0.000000e+00 0.000000e+00 0.000000e+00 0.000000e+00 0.000000e+00 
     1.5                0.000000e+00 0.000000e+00 0.000000e+00 0.000000e+00 0.000000e+00 0.000000e+00 0.000000e+00 0.000000e+00 0.000000e+00 0.000000e+00 0.000000e+00 0.000000e+00 
     2.5                1.190731e-04 3.220672e-05 8.713227e-05 8.901886e-05 1.550729e-04 7.010632e-08 1.134427e-04 8.350603e-05 8.367745e-05 2.597921e-04 2.413936e-04 2.574376e-04 
     3.5                4.738252e-04 3.663589e-04 4.660380e-04 4.197114e-04 7.557581e-04 4.666883e-07 5.972858e-04 4.362171e-04 4.493415e-04 1.290856e-03 1.256016e-03 1.355907e-03 
     4.5                8.444057e-04 9.588812e-04 9.377468e-04 8.836045e-04 1.644323e-03 1.101103e-06 1.222350e-03 9.663091e-04 9.811301e-04 2.728417e-03 2.713431e-03 2.847799e-03 
     5.5                1.251495e-03 1.612677e-03 1.405447e-03 1.431438e-03 2.743826e-03 1.689486e-06 1.876154e-03 1.596135e-03 1.608481e-03 4.395837e-03 4.404933e-03 4.479026e-03 
     6.5                1.618827e-03 2.273656e-03 1.810061e-03 2.076826e-03 4.080916e-03 2.170291e-06 2.490080e-03 2.233814e-03 2.239171e-03 6.278563e-03 6.263714e-03 6.110824e-03 
     7.5                1.981575e-03 2.833707e-03 2.117577e-03 2.737375e-03 5.505118e-03 2.582296e-06 3.018162e-03 2.820082e-03 2.816936e-03 8.169170e-03 8.114169e-03 7.596728e-03 
     8.5                2.318489e-03 3.342576e-03 2.377398e-03 3.367677e-03 6.907490e-03 2.855637e-06 3.483478e-03 3.358798e-03 3.352036e-03 9.975032e-03 9.883403e-03 8.957663e-03 
     9.5                2.574069e-03 3.761542e-03 2.565804e-03 3.961530e-03 8.255485e-03 3.040483e-06 3.869102e-03 3.832703e-03 3.829584e-03 1.166204e-02 1.149035e-02 1.010054e-02 
    10.5                2.873860e-03 4.091094e-03 2.681915e-03 4.539020e-03 9.582845e-03 3.136105e-06 4.172774e-03 4.276420e-03 4.278854e-03 1.325701e-02 1.304344e-02 1.113933e-02 
    11.5                3.099186e-03 4.456836e-03 2.790982e-03 5.192734e-03 1.114505e-02 3.204646e-06 4.485222e-03 4.733054e-03 4.738182e-03 1.509735e-02 1.477175e-02 1.219995e-02 
    12.5                3.274277e-03 4.721489e-03 2.823322e-03 5.676766e-03 1.233045e-02 3.159484e-06 4.689029e-03 5.050507e-03 5.057785e-03 1.644224e-02 1.606419e-02 1.295296e-02 
    13.5                3.308521e-03 4.884739e-03 2.784559e-03 6.039930e-03 1.336463e-02 3.046761e-06 4.753410e-03 5.180032e-03 5.188976e-03 1.752141e-02 1.709196e-02 1.336507e-02 
    14.5                3.431689e-03 4.790256e-03 2.728108e-03 6.250871e-03 1.393655e-02 2.993437e-06 4.754720e-03 5.235503e-03 5.246715e-03 1.810110e-02 1.760751e-02 1.350677e-02 
    15.5                3.491636e-03 4.944907e-03 2.670622e-03 6.662483e-03 1.503762e-02 2.832428e-06 4.834190e-03 5.347576e-03 5.358241e-03 1.925878e-02 1.868528e-02 1.395339e-02 
    16.5                3.541820e-03 4.900656e-03 2.607566e-03 6.773587e-03 1.531724e-02 2.778986e-06 4.796358e-03 5.364055e-03 5.373744e-03 1.951953e-02 1.891688e-02 1.399342e-02 
    17.5                3.553841e-03 4.915484e-03 2.548030e-03 6.933917e-03 1.575278e-02 2.632927e-06 4.789007e-03 5.328913e-03 5.339158e-03 1.993955e-02 1.929551e-02 1.409597e-02 
    18.5                3.613420e-03 4.882878e-03 2.466728e-03 7.098441e-03 1.621571e-02 2.477576e-06 4.768670e-03 5.288594e-03 5.298604e-03 2.037351e-02 1.969405e-02 1.418197e-02 
    19.5                3.594402e-03 4.839145e-03 2.384793e-03 7.152447e-03 1.632422e-02 2.279399e-06 4.721340e-03 5.173372e-03 5.183780e-03 2.043843e-02 1.970000e-02 1.410670e-02 
    20.5                3.540748e-03 4.762311e-03 2.251267e-03 7.054265e-03 1.612993e-02 2.109563e-06 4.570347e-03 4.986845e-03 4.995944e-03 2.010062e-02 1.941219e-02 1.382119e-02 
    21.5                3.587413e-03 4.613601e-03 2.182631e-03 7.101465e-03 1.623600e-02 1.990553e-06 4.509313e-03 4.847784e-03 4.856352e-03 2.015842e-02 1.941126e-02 1.372396e-02 
    22.5                3.513323e-03 4.677437e-03 2.114444e-03 7.202053e-03 1.649080e-02 1.856129e-06 4.490614e-03 4.724889e-03 4.732733e-03 2.038589e-02 1.959935e-02 1.374474e-02 
    23.5                3.370712e-03 4.457772e-03 1.968687e-03 6.821465e-03 1.561291e-02 1.696673e-06 4.229755e-03 4.423717e-03 4.430979e-03 1.927516e-02 1.856595e-02 1.303855e-02 
    24.5                3.289437e-03 4.201207e-03 1.859326e-03 6.553370e-03 1.496443e-02 1.545884e-06 4.051004e-03 4.158532e-03 4.165431e-03 1.846057e-02 1.775193e-02 1.247574e-02 
    25.5                3.203365e-03 4.108199e-03 1.765490e-03 6.397561e-03 1.462144e-02 1.409574e-06 3.921444e-03 3.931746e-03 3.938345e-03 1.799684e-02 1.730835e-02 1.213740e-02 
    26.5                3.175093e-03 3.933368e-03 1.709523e-03 6.203064e-03 1.407855e-02 1.331466e-06 3.816216e-03 3.724290e-03 3.730699e-03 1.736315e-02 1.667443e-02 1.178050e-02 
    27.5                3.048612e-03 3.869197e-03 1.627701e-03 5.997761e-03 1.351724e-02 1.228638e-06 3.684097e-03 3.518596e-03 3.523938e-03 1.668512e-02 1.602202e-02 1.140470e-02 
    28.5                2.979968e-03 3.690813e-03 1.533102e-03 5.762484e-03 1.292556e-02 1.087508e-06 3.518625e-03 3.256766e-03 3.261830e-03 1.594586e-02 1.532034e-02 1.095286e-02 
    29.5                2.763303e-03 3.550539e-03 1.425023e-03 5.469908e-03 1.223251e-02 9.089812e-07 3.316931e-03 2.950099e-03 2.954476e-03 1.507411e-02 1.447128e-02 1.035660e-02 
    30.5                2.691528e-03 3.286847e-03 1.301629e-03 5.208293e-03 1.165686e-02 7.556762e-07 3.104391e-03 2.731265e-03 2.734517e-03 1.431528e-02 1.374580e-02 9.788558e-03 
    31.5                2.682186e-03 3.176807e-03 1.262022e-03 5.087139e-03 1.129439e-02 6.678051e-07 3.041429e-03 2.566370e-03 2.569542e-03 1.388763e-02 1.332301e-02 9.572322e-03 
    32.5                2.575218e-03 3.090269e-03 1.230511e-03 4.829954e-03 1.060796e-02 5.985018e-07 2.922707e-03 2.355260e-03 2.358377e-03 1.310163e-02 1.257684e-02 9.194261e-03 
    33.5                2.633048e-03 2.998614e-03 1.234495e-03 4.724743e-03 1.024869e-02 4.971297e-07 2.899682e-03 2.174667e-03 2.177882e-03 1.272011e-02 1.221878e-02 9.088919e-03 
    34.5                2.633642e-03 3.054205e-03 1.225198e-03 4.789702e-03 1.031308e-02 4.316691e-07 2.917358e-03 2.088750e-03 2.091042e-03 1.280320e-02 1.229009e-02 9.179210e-03 
    35.5                2.541825e-03 2.938544e-03 1.211809e-03 4.504180e-03 9.494887e-03 4.175166e-07 2.792641e-03 1.953229e-03 1.955046e-03 1.190157e-02 1.143761e-02 8.781826e-03 
    36.5                2.592718e-03 2.843881e-03 1.220302e-03 4.452652e-03 9.256715e-03 3.553737e-07 2.778747e-03 1.822700e-03 1.824370e-03 1.166573e-02 1.119569e-02 8.717516e-03 
    37.5                2.669118e-03 2.963830e-03 1.247357e-03 4.542928e-03 9.350211e-03 3.064641e-07 2.831622e-03 1.765021e-03 1.766153e-03 1.182140e-02 1.139422e-02 8.966309e-03 
    38.5                2.867432e-03 2.879237e-03 1.336663e-03 4.559315e-03 9.132855e-03 3.579978e-07 2.906765e-03 1.693340e-03 1.694890e-03 1.171431e-02 1.126990e-02 9.133523e-03 
    39.5                2.759575e-03 3.105669e-03 1.413700e-03 4.617550e-03 9.058320e-03 3.421572e-07 2.992007e-03 1.642802e-03 1.644040e-03 1.174261e-02 1.128166e-02 9.335166e-03 
    40.5                2.843826e-03 3.049871e-03 1.399340e-03 4.556439e-03 8.879858e-03 2.502446e-07 2.954371e-03 1.574806e-03 1.576038e-03 1.153240e-02 1.114847e-02 9.304697e-03 
    41.5                3.148349e-03 3.084948e-03 1.593233e-03 4.695755e-03 8.918517e-03 4.722086e-07 3.176033e-03 1.556110e-03 1.558730e-03 1.180640e-02 1.140254e-02 9.828501e-03 
    42.5                3.055862e-03 3.365203e-03 1.761787e-03 4.716776e-03 8.688869e-03 5.562319e-07 3.327078e-03 1.549295e-03 1.553178e-03 1.175921e-02 1.135422e-02 1.012885e-02 
    43.5                3.233477e-03 3.270412e-03 1.807607e-03 4.584778e-03 8.282191e-03 6.495977e-07 3.311496e-03 1.502602e-03 1.507042e-03 1.137256e-02 1.109256e-02 1.012316e-02 
    44.5                3.552861e-03 3.429760e-03 2.014620e-03 4.950592e-03 8.623961e-03 6.992914e-07 3.603531e-03 1.550918e-03 1.554717e-03 1.207378e-02 1.169985e-02 1.095393e-02 
    45.5                3.537688e-03 3.776781e-03 2.095016e-03 5.088222e-03 8.647687e-03 7.095982e-07 3.702636e-03 1.554241e-03 1.557012e-03 1.225089e-02 1.195710e-02 1.138212e-02 
    46.5                3.635063e-03 3.696440e-03 2.223561e-03 5.009856e-03 8.426868e-03 8.341373e-07 3.801156e-03 1.518306e-03 1.523650e-03 1.211772e-02 1.181427e-02 1.143697e-02 
    47.5                3.888769e-03 3.853884e-03 2.509022e-03 5.062547e-03 8.378539e-03 1.642062e-06 4.086477e-03 1.542518e-03 1.551835e-03 1.236852e-02 1.211827e-02 1.202692e-02 
    48.5                4.263256e-03 3.953654e-03 2.826172e-03 5.271753e-03 8.350108e-03 1.996018e-06 4.417826e-03 1.592563e-03 1.603028e-03 1.277964e-02 1.247942e-02 1.281176e-02 
    49.5                4.683254e-03 4.383557e-03 3.148042e-03 5.629183e-03 8.620902e-03 2.497717e-06 4.812155e-03 1.655065e-03 1.666593e-03 1.353554e-02 1.336154e-02 1.401083e-02 
    50.5                5.398334e-03 4.669766e-03 3.734309e-03 6.097625e-03 8.946932e-03 3.839853e-06 5.482887e-03 1.744279e-03 1.759958e-03 1.465835e-02 1.443199e-02 1.563286e-02 
    51.5                5.997020e-03 5.366063e-03 4.796741e-03 6.513104e-03 9.279886e-03 6.862555e-06 6.621001e-03 1.833629e-03 1.862421e-03 1.616882e-02 1.578094e-02 1.781385e-02 
    52.5                6.024048e-03 6.094646e-03 5.509793e-03 6.496829e-03 9.146515e-03 8.865641e-06 7.315596e-03 1.886423e-03 1.925736e-03 1.667897e-02 1.636576e-02 1.894231e-02 
    53.5                6.143846e-03 6.235103e-03 5.957984e-03 6.263563e-03 8.791684e-03 1.034215e-05 7.698283e-03 1.907233e-03 1.954945e-03 1.661759e-02 1.638259e-02 1.931285e-02 
    54.5                5.786692e-03 6.370293e-03 6.095607e-03 5.952131e-03 8.354274e-03 1.012939e-05 7.754977e-03 1.891100e-03 1.942545e-03 1.615113e-02 1.591668e-02 1.900263e-02 
    55.5                5.848057e-03 6.312870e-03 6.077668e-03 5.701943e-03 7.986099e-03 1.035799e-05 7.666013e-03 1.871442e-03 1.922935e-03 1.566375e-02 1.567672e-02 1.878006e-02 
    56.5                5.572217e-03 6.186264e-03 6.035265e-03 5.511262e-03 7.615340e-03 1.015355e-05 7.559656e-03 1.834090e-03 1.884705e-03 1.519394e-02 1.510326e-02 1.828559e-02 
    57.5                5.091626e-03 5.949165e-03 5.700501e-03 5.065147e-03 6.933245e-03 9.578627e-06 7.093111e-03 1.746197e-03 1.793171e-03 1.404985e-02 1.404299e-02 1.712103e-02 
    58.5                4.898277e-03 5.486573e-03 5.488444e-03 4.657086e-03 6.276493e-03 9.820021e-06 6.751885e-03 1.620696e-03 1.666355e-03 1.307583e-02 1.306092e-02 1.611113e-02 
    59.5                4.691259e-03 5.197864e-03 5.354359e-03 4.368916e-03 5.790021e-03 1.018054e-05 6.522865e-03 1.490496e-03 1.534970e-03 1.238497e-02 1.233851e-02 1.538510e-02 
    60.5                4.279665e-03 5.031185e-03 5.206111e-03 3.931776e-03 5.261134e-03 1.036413e-05 6.263840e-03 1.333623e-03 1.378692e-03 1.152580e-02 1.150571e-02 1.447457e-02 
    61.5                3.751060e-03 4.568596e-03 4.909813e-03 3.375467e-03 4.539179e-03 9.847064e-06 5.821957e-03 1.169381e-03 1.213510e-03 1.029548e-02 1.020696e-02 1.302980e-02 
    62.5                3.073512e-03 4.232814e-03 4.333321e-03 2.784271e-03 3.784206e-03 9.036573e-06 5.090562e-03 1.000519e-03 1.040091e-03 8.772841e-03 8.836216e-03 1.130894e-02 
    63.5                2.515424e-03 3.465721e-03 3.614050e-03 2.219313e-03 3.000530e-03 7.652479e-06 4.215902e-03 8.254448e-04 8.584467e-04 7.122300e-03 7.189519e-03 9.262884e-03 
    64.5                2.015301e-03 2.857121e-03 2.978412e-03 1.755839e-03 2.384515e-03 6.328314e-06 3.456230e-03 6.554575e-04 6.826225e-04 5.747451e-03 5.821772e-03 7.532497e-03 
    65.5                1.545280e-03 2.274676e-03 2.430251e-03 1.314560e-03 1.815579e-03 5.204969e-06 2.792816e-03 4.951515e-04 5.179382e-04 4.499812e-03 4.539550e-03 5.931407e-03 
    66.5                1.104798e-03 1.828850e-03 1.908982e-03 9.502102e-04 1.336356e-03 4.206999e-06 2.174350e-03 3.549935e-04 3.731464e-04 3.403739e-03 3.455478e-03 4.540523e-03 
    67.5                7.152058e-04 1.346396e-03 1.384822e-03 6.027979e-04 8.913386e-04 3.161149e-06 1.559735e-03 2.305439e-04 2.442345e-04 2.342301e-03 2.404591e-03 3.173197e-03 
    68.5                4.055333e-04 9.094655e-04 9.269905e-04 3.233948e-04 5.396401e-04 1.998954e-06 1.031212e-03 1.313292e-04 1.410422e-04 1.457258e-03 1.519606e-03 2.008601e-03 
    69.5                1.794700e-04 5.573964e-04 5.276474e-04 1.445269e-04 2.845296e-04 1.007805e-06 5.824145e-04 6.293573e-05 6.874417e-05 7.764710e-04 8.410306e-04 1.101304e-03 
    70.5                4.548958e-05 2.799533e-04 2.292398e-04 4.904564e-05 1.164344e-04 3.855381e-07 2.516019e-04 2.349451e-05 2.608219e-05 3.186720e-04 3.661960e-04 4.723576e-04 
    71.5                5.892100e-06 1.008810e-04 6.197115e-05 1.239587e-05 3.122910e-05 1.188228e-07 6.808837e-05 5.897200e-06 6.587973e-06 8.487308e-05 1.160225e-04 1.420497e-04 
    72.5                1.277586e-07 1.771603e-05 8.729591e-06 1.426894e-06 4.152975e-06 2.037484e-08 9.577786e-06 8.300533e-07 9.274219e-07 1.144484e-05 1.887289e-05 2.216288e-05 
    73.5                0.000000e+00 1.382192e-06 4.408041e-07 4.637256e-08 1.838683e-07 2.106897e-09 4.839253e-07 3.486045e-08 3.975239e-08 5.354597e-07 1.404791e-06 1.512520e-06 
    74.5                0.000000e+00 0.000000e+00 0.000000e+00 0.000000e+00 0.000000e+00 0.000000e+00 0.000000e+00 0.000000e+00 0.000000e+00 0.000000e+00 0.000000e+00 0.000000e+00 
    75.5                0.000000e+00 0.000000e+00 0.000000e+00 0.000000e+00 0.000000e+00 0.000000e+00 0.000000e+00 0.000000e+00 0.000000e+00 0.000000e+00 0.000000e+00 0.000000e+00 
    76.5                0.000000e+00 0.000000e+00 0.000000e+00 0.000000e+00 0.000000e+00 0.000000e+00 0.000000e+00 0.000000e+00 0.000000e+00 0.000000e+00 0.000000e+00 0.000000e+00 
    77.5                0.000000e+00 0.000000e+00 0.000000e+00 0.000000e+00 0.000000e+00 0.000000e+00 0.000000e+00 0.000000e+00 0.000000e+00 0.000000e+00 0.000000e+00 0.000000e+00 
    78.5                0.000000e+00 0.000000e+00 0.000000e+00 0.000000e+00 0.000000e+00 0.000000e+00 0.000000e+00 0.000000e+00 0.000000e+00 0.000000e+00 0.000000e+00 0.000000e+00 
    79.5                0.000000e+00 0.000000e+00 0.000000e+00 0.000000e+00 0.000000e+00 0.000000e+00 0.000000e+00 0.000000e+00 0.000000e+00 0.000000e+00 0.000000e+00 0.000000e+00 


