# 80 rows of flux data
# 12 columns of flux data
# 
# total cross-sectional flux  1.025391e+00 /m^2/yr
#
#                       +x vernal eq.           -x           +y           -y +z eclip. N. -z eclip. S.        Earth          Sun     anti-Sun      rot (x)      rot (y)      rot (z) 
# average speed (km/s)         37.34        37.45        37.40        37.43        21.22        31.66        37.19        27.83        27.83        33.74        33.74        37.41 
# total flux (#/m2/yr)  2.233253e-01 2.411218e-01 2.298815e-01 2.340026e-01 3.644025e-04 6.342190e-01 2.346396e-01 1.664829e-01 1.665515e-01 8.503669e-01 8.506099e-01 7.290773e-01 
# velocity (km/s)
     0.5                0.000000e+00 0.000000e+00 0.000000e+00 0.000000e+00 0.000000e+00 0.000000e+00 0.000000e+00 0.000000e+00 0.000000e+00 0.000000e+00 0.000000e+00 0.000000e+00 
     1.5                0.000000e+00 0.000000e+00 0.000000e+00 0.000000e+00 0.000000e+00 0.000000e+00 0.000000e+00 0.000000e+00 0.000000e+00 0.000000e+00 0.000000e+00 0.000000e+00 
     2.5                9.446112e-05 7.234114e-05 8.463627e-05 8.041394e-05 4.751677e-07 1.552699e-04 9.533760e-05 8.397859e-05 8.431927e-05 2.509846e-04 2.524639e-04 2.604913e-04 
     3.5                4.668685e-04 4.026488e-04 4.413571e-04 4.281662e-04 3.164867e-06 7.486771e-04 4.834211e-04 4.404313e-04 4.439113e-04 1.268893e-03 1.270082e-03 1.365488e-03 
     4.5                9.129023e-04 9.099681e-04 9.151634e-04 9.149088e-04 7.099402e-06 1.633404e-03 9.999771e-04 9.736433e-04 9.783052e-04 2.720515e-03 2.713991e-03 2.868790e-03 
     5.5                1.394596e-03 1.473252e-03 1.427565e-03 1.443888e-03 1.026684e-05 2.745119e-03 1.542785e-03 1.604487e-03 1.607977e-03 4.406033e-03 4.406490e-03 4.507932e-03 
     6.5                1.836608e-03 2.037458e-03 1.916826e-03 1.961657e-03 1.218786e-05 4.123570e-03 2.060703e-03 2.235212e-03 2.235984e-03 6.282939e-03 6.283549e-03 6.089531e-03 
     7.5                2.238602e-03 2.541694e-03 2.359456e-03 2.428187e-03 1.403325e-05 5.611113e-03 2.524601e-03 2.813100e-03 2.811705e-03 8.173806e-03 8.167668e-03 7.514185e-03 
     8.5                2.624850e-03 3.001983e-03 2.758182e-03 2.845349e-03 1.570616e-05 7.077742e-03 2.945412e-03 3.351606e-03 3.350037e-03 9.981929e-03 9.998455e-03 8.819435e-03 
     9.5                2.960673e-03 3.331396e-03 3.099602e-03 3.183636e-03 1.628536e-05 8.499795e-03 3.291468e-03 3.820361e-03 3.819712e-03 1.165026e-02 1.166014e-02 9.876993e-03 
    10.5                3.273957e-03 3.620091e-03 3.411523e-03 3.490544e-03 1.662985e-05 9.911184e-03 3.582664e-03 4.267114e-03 4.267509e-03 1.326312e-02 1.326486e-02 1.083620e-02 
    11.5                3.579932e-03 3.927551e-03 3.704494e-03 3.784832e-03 1.689144e-05 1.156870e-02 3.891437e-03 4.723610e-03 4.724947e-03 1.508424e-02 1.509716e-02 1.177820e-02 
    12.5                3.729237e-03 4.213663e-03 3.916209e-03 4.028252e-03 1.679285e-05 1.283187e-02 4.110457e-03 5.046339e-03 5.048621e-03 1.645371e-02 1.645513e-02 1.247733e-02 
    13.5                3.790983e-03 4.356435e-03 3.983242e-03 4.114233e-03 1.664665e-05 1.393685e-02 4.186204e-03 5.179022e-03 5.181507e-03 1.753269e-02 1.756195e-02 1.275743e-02 
    14.5                3.852611e-03 4.322080e-03 4.022352e-03 4.131190e-03 1.641128e-05 1.455877e-02 4.204505e-03 5.234340e-03 5.237027e-03 1.810988e-02 1.812313e-02 1.282373e-02 
    15.5                3.957740e-03 4.448661e-03 4.124650e-03 4.237880e-03 1.558761e-05 1.574293e-02 4.308573e-03 5.346421e-03 5.349173e-03 1.926370e-02 1.928097e-02 1.316820e-02 
    16.5                3.958436e-03 4.413027e-03 4.136775e-03 4.242332e-03 1.403147e-05 1.605710e-02 4.287143e-03 5.357596e-03 5.360064e-03 1.952522e-02 1.952457e-02 1.315525e-02 
    17.5                3.966227e-03 4.459064e-03 4.141430e-03 4.255358e-03 1.318880e-05 1.653076e-02 4.303853e-03 5.322188e-03 5.324963e-03 1.993587e-02 1.994997e-02 1.321007e-02 
    18.5                4.025003e-03 4.427420e-03 4.174017e-03 4.267652e-03 1.310797e-05 1.703519e-02 4.318959e-03 5.287635e-03 5.290294e-03 2.038642e-02 2.038849e-02 1.326852e-02 
    19.5                4.011324e-03 4.416391e-03 4.155783e-03 4.248421e-03 1.239749e-05 1.716580e-02 4.310238e-03 5.174629e-03 5.177712e-03 2.043128e-02 2.043846e-02 1.322243e-02 
    20.5                3.911226e-03 4.331841e-03 4.075312e-03 4.172745e-03 1.112984e-05 1.697942e-02 4.192959e-03 4.986277e-03 4.988619e-03 2.012254e-02 2.012230e-02 1.295351e-02 
    21.5                3.932696e-03 4.236717e-03 4.044818e-03 4.115203e-03 9.927936e-06 1.711089e-02 4.147431e-03 4.842697e-03 4.844808e-03 2.015483e-02 2.015559e-02 1.282581e-02 
    22.5                3.883615e-03 4.281287e-03 4.045463e-03 4.137173e-03 8.834082e-06 1.739634e-02 4.153846e-03 4.717312e-03 4.719516e-03 2.037843e-02 2.036563e-02 1.283633e-02 
    23.5                3.686575e-03 4.111838e-03 3.821554e-03 3.920148e-03 8.086468e-06 1.647554e-02 3.926074e-03 4.416871e-03 4.419021e-03 1.926887e-02 1.929529e-02 1.220654e-02 
    24.5                3.617311e-03 3.841060e-03 3.704910e-03 3.756545e-03 7.542062e-06 1.579823e-02 3.775878e-03 4.154237e-03 4.155947e-03 1.845693e-02 1.845985e-02 1.171752e-02 
    25.5                3.509197e-03 3.751998e-03 3.613424e-03 3.669731e-03 7.008754e-06 1.544434e-02 3.670872e-03 3.927898e-03 3.929763e-03 1.800408e-02 1.799792e-02 1.142173e-02 
    26.5                3.434821e-03 3.655366e-03 3.518389e-03 3.569311e-03 6.328670e-06 1.487811e-02 3.584550e-03 3.718627e-03 3.720576e-03 1.735063e-02 1.735207e-02 1.113553e-02 
    27.5                3.289024e-03 3.615865e-03 3.406131e-03 3.481893e-03 5.127360e-06 1.429797e-02 3.472320e-03 3.510314e-03 3.511395e-03 1.666635e-02 1.667269e-02 1.082908e-02 
    28.5                3.192678e-03 3.448581e-03 3.286492e-03 3.346258e-03 4.272255e-06 1.368217e-02 3.331243e-03 3.247500e-03 3.248786e-03 1.593163e-02 1.593924e-02 1.042528e-02 
    29.5                2.980187e-03 3.304847e-03 3.109388e-03 3.183641e-03 3.676817e-06 1.295453e-02 3.157964e-03 2.943068e-03 2.944297e-03 1.506309e-02 1.506511e-02 9.878604e-03 
    30.5                2.872779e-03 3.090671e-03 2.937015e-03 2.988047e-03 2.967228e-06 1.235356e-02 2.973491e-03 2.724957e-03 2.725691e-03 1.430661e-02 1.431996e-02 9.337091e-03 
    31.5                2.871652e-03 2.968466e-03 2.910304e-03 2.934081e-03 2.456267e-06 1.197719e-02 2.927519e-03 2.560379e-03 2.561318e-03 1.388179e-02 1.387858e-02 9.180313e-03 
    32.5                2.773772e-03 2.906775e-03 2.781840e-03 2.812716e-03 2.198860e-06 1.124909e-02 2.817183e-03 2.348926e-03 2.349730e-03 1.308027e-02 1.310720e-02 8.857008e-03 
    33.5                2.807050e-03 2.859263e-03 2.770101e-03 2.782211e-03 1.879198e-06 1.087051e-02 2.802410e-03 2.170060e-03 2.170735e-03 1.269145e-02 1.273862e-02 8.810146e-03 
    34.5                2.773848e-03 2.940242e-03 2.798259e-03 2.837626e-03 1.411741e-06 1.094903e-02 2.838532e-03 2.083939e-03 2.084516e-03 1.277827e-02 1.281546e-02 8.916280e-03 
    35.5                2.694589e-03 2.793550e-03 2.703806e-03 2.727407e-03 1.076968e-06 1.008343e-02 2.720933e-03 1.946149e-03 1.946606e-03 1.188112e-02 1.190383e-02 8.574772e-03 
    36.5                2.694839e-03 2.696031e-03 2.740941e-03 2.740561e-03 6.747998e-07 9.835203e-03 2.715348e-03 1.816079e-03 1.816447e-03 1.166876e-02 1.162643e-02 8.537938e-03 
    37.5                2.642676e-03 2.928672e-03 2.782329e-03 2.848143e-03 4.255464e-07 9.939167e-03 2.779882e-03 1.758969e-03 1.759254e-03 1.184053e-02 1.181052e-02 8.799711e-03 
    38.5                2.726084e-03 3.026836e-03 2.813741e-03 2.886417e-03 4.402428e-07 9.709793e-03 2.854254e-03 1.688342e-03 1.688757e-03 1.168342e-02 1.170447e-02 8.996474e-03 
    39.5                2.806727e-03 3.079898e-03 2.901725e-03 2.964987e-03 4.204623e-07 9.632059e-03 2.943799e-03 1.638135e-03 1.638404e-03 1.170732e-02 1.171310e-02 9.229519e-03 
    40.5                2.931697e-03 2.900216e-03 2.958648e-03 2.952048e-03 3.503960e-07 9.443355e-03 2.915902e-03 1.570362e-03 1.570808e-03 1.156134e-02 1.151476e-02 9.221169e-03 
    41.5                3.164134e-03 3.000550e-03 3.153028e-03 3.118640e-03 4.104013e-07 9.478014e-03 3.099297e-03 1.551639e-03 1.551898e-03 1.181328e-02 1.174895e-02 9.761740e-03 
    42.5                3.206003e-03 3.231091e-03 3.206596e-03 3.212799e-03 5.362468e-07 9.227222e-03 3.218443e-03 1.544622e-03 1.544845e-03 1.170537e-02 1.172120e-02 1.009570e-02 
    43.5                3.278305e-03 3.205615e-03 3.204276e-03 3.183963e-03 5.008196e-07 8.789930e-03 3.186185e-03 1.497096e-03 1.497204e-03 1.133582e-02 1.139514e-02 1.010437e-02 
    44.5                3.602224e-03 3.410969e-03 3.495511e-03 3.450379e-03 4.462319e-07 9.158268e-03 3.490433e-03 1.543879e-03 1.544196e-03 1.199906e-02 1.203460e-02 1.096243e-02 
    45.5                3.562240e-03 3.793450e-03 3.564813e-03 3.618676e-03 3.870864e-07 9.191880e-03 3.612070e-03 1.547003e-03 1.547246e-03 1.217154e-02 1.228880e-02 1.140694e-02 
    46.5                3.662467e-03 3.704581e-03 3.618269e-03 3.629541e-03 4.985609e-07 8.942546e-03 3.648704e-03 1.512188e-03 1.512574e-03 1.202287e-02 1.212261e-02 1.147726e-02 
    47.5                3.864425e-03 3.781821e-03 3.840180e-03 3.822293e-03 6.969275e-07 8.870553e-03 3.819266e-03 1.533815e-03 1.534533e-03 1.229343e-02 1.228392e-02 1.203056e-02 
    48.5                4.154450e-03 4.097796e-03 4.051362e-03 4.035682e-03 1.136449e-06 8.828549e-03 4.096459e-03 1.581757e-03 1.582227e-03 1.258559e-02 1.269704e-02 1.283382e-02 
    49.5                4.683505e-03 4.312997e-03 4.475268e-03 4.390178e-03 1.105967e-06 9.116936e-03 4.443353e-03 1.640710e-03 1.641186e-03 1.337701e-02 1.346897e-02 1.403283e-02 
    50.5                5.294068e-03 4.602173e-03 5.066021e-03 4.905111e-03 1.172253e-06 9.450269e-03 4.955878e-03 1.724659e-03 1.725095e-03 1.445208e-02 1.440474e-02 1.559782e-02 
    51.5                5.869572e-03 5.267436e-03 5.716771e-03 5.575365e-03 1.811023e-06 9.750430e-03 5.644013e-03 1.808606e-03 1.809255e-03 1.571683e-02 1.560758e-02 1.762500e-02 
    52.5                5.884339e-03 5.862872e-03 6.002234e-03 6.001128e-03 3.471964e-06 9.548671e-03 5.980053e-03 1.856532e-03 1.857285e-03 1.616909e-02 1.598221e-02 1.866234e-02 
    53.5                5.732732e-03 6.240145e-03 6.014497e-03 6.134789e-03 3.807340e-06 9.111522e-03 6.064506e-03 1.873612e-03 1.874504e-03 1.601443e-02 1.587323e-02 1.894622e-02 
    54.5                5.633266e-03 6.231652e-03 5.874937e-03 6.013924e-03 3.224475e-06 8.617866e-03 5.988240e-03 1.854726e-03 1.855721e-03 1.546974e-02 1.544575e-02 1.865155e-02 
    55.5                5.728665e-03 6.092463e-03 5.766665e-03 5.848139e-03 2.146617e-06 8.217272e-03 5.842804e-03 1.827737e-03 1.828228e-03 1.498185e-02 1.513820e-02 1.839928e-02 
    56.5                5.561060e-03 5.849535e-03 5.673724e-03 5.739834e-03 1.883692e-06 7.805805e-03 5.734727e-03 1.785442e-03 1.785873e-03 1.454360e-02 1.453248e-02 1.792394e-02 
    57.5                5.050612e-03 5.598752e-03 5.299915e-03 5.426369e-03 2.386295e-06 7.080108e-03 5.354111e-03 1.696346e-03 1.696709e-03 1.349444e-02 1.343561e-02 1.678840e-02 
    58.5                4.727335e-03 5.295749e-03 4.944603e-03 5.079580e-03 2.887527e-06 6.396967e-03 5.025430e-03 1.570286e-03 1.570805e-03 1.246959e-02 1.246779e-02 1.574317e-02 
    59.5                4.555298e-03 5.017036e-03 4.697120e-03 4.804200e-03 2.361144e-06 5.893462e-03 4.792522e-03 1.441745e-03 1.442410e-03 1.170602e-02 1.176268e-02 1.497495e-02 
    60.5                4.171518e-03 4.779583e-03 4.387531e-03 4.526924e-03 1.595826e-06 5.328044e-03 4.481327e-03 1.287885e-03 1.288471e-03 1.085699e-02 1.088666e-02 1.403101e-02 
    61.5                3.671582e-03 4.369069e-03 3.920137e-03 4.079102e-03 1.787493e-06 4.556433e-03 4.056310e-03 1.128336e-03 1.128737e-03 9.611034e-03 9.643317e-03 1.260158e-02 
    62.5                3.093124e-03 3.878270e-03 3.366327e-03 3.548721e-03 2.008523e-06 3.771004e-03 3.473233e-03 9.635484e-04 9.639148e-04 8.212771e-03 8.251592e-03 1.090420e-02 
    63.5                2.439083e-03 3.204764e-03 2.765601e-03 2.944049e-03 1.577944e-06 2.974467e-03 2.843188e-03 7.923232e-04 7.926397e-04 6.693571e-03 6.640910e-03 8.911672e-03 
    64.5                1.984139e-03 2.636417e-03 2.224601e-03 2.374946e-03 1.248326e-06 2.351846e-03 2.305963e-03 6.278494e-04 6.280993e-04 5.367717e-03 5.386253e-03 7.243138e-03 
    65.5                1.533782e-03 2.056882e-03 1.771256e-03 1.891832e-03 1.578613e-06 1.771699e-03 1.826094e-03 4.744619e-04 4.747441e-04 4.217617e-03 4.156653e-03 5.697319e-03 
    66.5                1.116061e-03 1.628569e-03 1.335398e-03 1.454647e-03 1.835833e-06 1.286146e-03 1.394001e-03 3.405482e-04 3.408387e-04 3.181466e-03 3.139662e-03 4.347480e-03 
    67.5                7.222634e-04 1.183780e-03 9.181025e-04 1.024990e-03 1.361516e-06 8.439303e-04 9.652187e-04 2.216947e-04 2.219375e-04 2.188769e-03 2.155656e-03 3.023189e-03 
    68.5                4.139336e-04 8.026019e-04 5.665995e-04 6.560572e-04 1.002525e-06 4.955958e-04 6.109531e-04 1.277740e-04 1.279023e-04 1.360062e-03 1.354517e-03 1.915925e-03 
    69.5                1.873543e-04 4.909511e-04 3.029473e-04 3.731713e-04 9.712868e-07 2.490864e-04 3.385323e-04 6.245181e-05 6.259972e-05 7.417186e-04 7.420793e-04 1.063056e-03 
    70.5                5.867858e-05 2.451397e-04 1.220500e-04 1.648899e-04 8.514972e-07 9.454485e-05 1.480644e-04 2.382759e-05 2.396938e-05 3.110427e-04 3.252496e-04 4.639104e-04 
    71.5                1.053968e-05 8.637068e-05 3.287270e-05 5.046872e-05 4.367718e-07 2.344355e-05 4.278969e-05 6.102546e-06 6.188333e-06 8.920809e-05 1.012532e-04 1.415567e-04 
    72.5                4.611041e-07 1.621939e-05 4.285429e-06 7.950608e-06 1.247501e-07 2.613535e-06 6.942319e-06 8.765395e-07 9.074284e-07 1.288544e-05 1.700961e-05 2.272182e-05 
    73.5                1.811141e-11 1.405172e-06 1.807169e-07 5.131237e-07 1.028224e-08 8.135382e-08 4.040645e-07 3.961388e-08 4.209803e-08 7.103022e-07 1.409725e-06 1.650921e-06 
    74.5                0.000000e+00 0.000000e+00 0.000000e+00 0.000000e+00 0.000000e+00 0.000000e+00 0.000000e+00 0.000000e+00 0.000000e+00 0.000000e+00 0.000000e+00 0.000000e+00 
    75.5                0.000000e+00 0.000000e+00 0.000000e+00 0.000000e+00 0.000000e+00 0.000000e+00 0.000000e+00 0.000000e+00 0.000000e+00 0.000000e+00 0.000000e+00 0.000000e+00 
    76.5                0.000000e+00 0.000000e+00 0.000000e+00 0.000000e+00 0.000000e+00 0.000000e+00 0.000000e+00 0.000000e+00 0.000000e+00 0.000000e+00 0.000000e+00 0.000000e+00 
    77.5                0.000000e+00 0.000000e+00 0.000000e+00 0.000000e+00 0.000000e+00 0.000000e+00 0.000000e+00 0.000000e+00 0.000000e+00 0.000000e+00 0.000000e+00 0.000000e+00 
    78.5                0.000000e+00 0.000000e+00 0.000000e+00 0.000000e+00 0.000000e+00 0.000000e+00 0.000000e+00 0.000000e+00 0.000000e+00 0.000000e+00 0.000000e+00 0.000000e+00 
    79.5                0.000000e+00 0.000000e+00 0.000000e+00 0.000000e+00 0.000000e+00 0.000000e+00 0.000000e+00 0.000000e+00 0.000000e+00 0.000000e+00 0.000000e+00 0.000000e+00 


