# 80 rows of flux data
# 12 columns of flux data
# 
# total cross-sectional flux  1.025391e+00 /m^2/yr
#
#                             +x ram      -x wake      +y port -y starboard    +z zenith     -z nadir        Earth          Sun     anti-Sun      rot (x)      rot (y)      rot (z) 
# average speed (km/s)         38.08        36.79        37.78        37.03        31.65        20.54        37.19        27.83        27.83        33.75        33.74        37.37 
# total flux (#/m2/yr)  2.121182e-01 2.528748e-01 2.083667e-01 2.557729e-01 6.319998e-01 6.168112e-05 2.346396e-01 1.664829e-01 1.665515e-01 8.498484e-01 8.496765e-01 7.297351e-01 
# velocity (km/s)
     0.5                0.000000e+00 0.000000e+00 0.000000e+00 0.000000e+00 0.000000e+00 0.000000e+00 0.000000e+00 0.000000e+00 0.000000e+00 0.000000e+00 0.000000e+00 0.000000e+00 
     1.5                0.000000e+00 0.000000e+00 0.000000e+00 0.000000e+00 0.000000e+00 0.000000e+00 0.000000e+00 0.000000e+00 0.000000e+00 0.000000e+00 0.000000e+00 0.000000e+00 
     2.5                1.192365e-04 3.229459e-05 8.905923e-05 9.043314e-05 1.553869e-04 5.584291e-08 9.533760e-05 8.397859e-05 8.431927e-05 2.617615e-04 2.412607e-04 2.604338e-04 
     3.5                4.730783e-04 3.668890e-04 4.529020e-04 4.455317e-04 7.497532e-04 4.470789e-07 4.834211e-04 4.404313e-04 4.439113e-04 1.289051e-03 1.249912e-03 1.364772e-03 
     4.5                8.448880e-04 9.578926e-04 9.335933e-04 9.148938e-04 1.635887e-03 1.078623e-06 9.999771e-04 9.736433e-04 9.783052e-04 2.729579e-03 2.704778e-03 2.867532e-03 
     5.5                1.255290e-03 1.613797e-03 1.431730e-03 1.437012e-03 2.747521e-03 1.688315e-06 1.542785e-03 1.604487e-03 1.607977e-03 4.399916e-03 4.411699e-03 4.506314e-03 
     6.5                1.617698e-03 2.273743e-03 1.894838e-03 1.969141e-03 4.123584e-03 2.157571e-06 2.060703e-03 2.235212e-03 2.235984e-03 6.267170e-03 6.296406e-03 6.090255e-03 
     7.5                1.976617e-03 2.831587e-03 2.299448e-03 2.464513e-03 5.606922e-03 2.441590e-06 2.524601e-03 2.813100e-03 2.811705e-03 8.143196e-03 8.189749e-03 7.518100e-03 
     8.5                2.316462e-03 3.339359e-03 2.662630e-03 2.919921e-03 7.069470e-03 2.701008e-06 2.945412e-03 3.351606e-03 3.350037e-03 9.954991e-03 1.001201e-02 8.827429e-03 
     9.5                2.561467e-03 3.756557e-03 2.952801e-03 3.320779e-03 8.486412e-03 2.845313e-06 3.291468e-03 3.820361e-03 3.819712e-03 1.162841e-02 1.166576e-02 9.889692e-03 
    10.5                2.866853e-03 4.080153e-03 3.188981e-03 3.684376e-03 9.891182e-03 2.884893e-06 3.582664e-03 4.267114e-03 4.267509e-03 1.322273e-02 1.328382e-02 1.085441e-02 
    11.5                3.095477e-03 4.441774e-03 3.433572e-03 4.059138e-03 1.154284e-02 2.904888e-06 3.891437e-03 4.723610e-03 4.724947e-03 1.506321e-02 1.509067e-02 1.180436e-02 
    12.5                3.269452e-03 4.716120e-03 3.603348e-03 4.336460e-03 1.280097e-02 2.948105e-06 4.110457e-03 5.046339e-03 5.048621e-03 1.641779e-02 1.645880e-02 1.250866e-02 
    13.5                3.301903e-03 4.882035e-03 3.637145e-03 4.476424e-03 1.390061e-02 2.882695e-06 4.186204e-03 5.179022e-03 5.181507e-03 1.750687e-02 1.755011e-02 1.279980e-02 
    14.5                3.426336e-03 4.785571e-03 3.632008e-03 4.545135e-03 1.451830e-02 2.803025e-06 4.204505e-03 5.234340e-03 5.237027e-03 1.808474e-02 1.810800e-02 1.287109e-02 
    15.5                3.486315e-03 4.939285e-03 3.689451e-03 4.721026e-03 1.569638e-02 2.644558e-06 4.308573e-03 5.346421e-03 5.349173e-03 1.924418e-02 1.925544e-02 1.322246e-02 
    16.5                3.535164e-03 4.893314e-03 3.656101e-03 4.737315e-03 1.600883e-02 2.478026e-06 4.287143e-03 5.357596e-03 5.360064e-03 1.949237e-02 1.951033e-02 1.321190e-02 
    17.5                3.549681e-03 4.907042e-03 3.653930e-03 4.786368e-03 1.648006e-02 2.336563e-06 4.303853e-03 5.322188e-03 5.324963e-03 1.991369e-02 1.992284e-02 1.327023e-02 
    18.5                3.611074e-03 4.878885e-03 3.648354e-03 4.835981e-03 1.698135e-02 2.301968e-06 4.318959e-03 5.287635e-03 5.290294e-03 2.035831e-02 2.036479e-02 1.333117e-02 
    19.5                3.593187e-03 4.836378e-03 3.633068e-03 4.847936e-03 1.711038e-02 2.156306e-06 4.310238e-03 5.174629e-03 5.177712e-03 2.042742e-02 2.038966e-02 1.328245e-02 
    20.5                3.535117e-03 4.762569e-03 3.521980e-03 4.750081e-03 1.692318e-02 1.955130e-06 4.192959e-03 4.986277e-03 4.988619e-03 2.008798e-02 2.010405e-02 1.301211e-02 
    21.5                3.581221e-03 4.610259e-03 3.470253e-03 4.743349e-03 1.705202e-02 1.739003e-06 4.147431e-03 4.842697e-03 4.844808e-03 2.013870e-02 2.011654e-02 1.288550e-02 
    22.5                3.508640e-03 4.669403e-03 3.463808e-03 4.778712e-03 1.733498e-02 1.545395e-06 4.153846e-03 4.717312e-03 4.719516e-03 2.036219e-02 2.032509e-02 1.289742e-02 
    23.5                3.365965e-03 4.452144e-03 3.271267e-03 4.520418e-03 1.641793e-02 1.417338e-06 3.926074e-03 4.416871e-03 4.419021e-03 1.925389e-02 1.925762e-02 1.226096e-02 
    24.5                3.285602e-03 4.197426e-03 3.146130e-03 4.354619e-03 1.574192e-02 1.323451e-06 3.775878e-03 4.154237e-03 4.155947e-03 1.844307e-02 1.842211e-02 1.176704e-02 
    25.5                3.200335e-03 4.104449e-03 3.054094e-03 4.243768e-03 1.538883e-02 1.213783e-06 3.670872e-03 3.927898e-03 3.929763e-03 1.798245e-02 1.796905e-02 1.146764e-02 
    26.5                3.170531e-03 3.929431e-03 2.987973e-03 4.141507e-03 1.482419e-02 1.083004e-06 3.584550e-03 3.718627e-03 3.720576e-03 1.734439e-02 1.730947e-02 1.117613e-02 
    27.5                3.041092e-03 3.865062e-03 2.896952e-03 4.028813e-03 1.424471e-02 9.005429e-07 3.472320e-03 3.510314e-03 3.511395e-03 1.665937e-02 1.663205e-02 1.086414e-02 
    28.5                2.974313e-03 3.683699e-03 2.778723e-03 3.877059e-03 1.363021e-02 7.366561e-07 3.331243e-03 3.247500e-03 3.248786e-03 1.591991e-02 1.590543e-02 1.045711e-02 
    29.5                2.759666e-03 3.544564e-03 2.633308e-03 3.680040e-03 1.290478e-02 6.294044e-07 3.157964e-03 2.943068e-03 2.944297e-03 1.505395e-02 1.503090e-02 9.907706e-03 
    30.5                2.687594e-03 3.282661e-03 2.472403e-03 3.479870e-03 1.230607e-02 5.150625e-07 2.973491e-03 2.724957e-03 2.725691e-03 1.429865e-02 1.428682e-02 9.364012e-03 
    31.5                2.677833e-03 3.172905e-03 2.439718e-03 3.427309e-03 1.193033e-02 4.337507e-07 2.927519e-03 2.560379e-03 2.561318e-03 1.387127e-02 1.384974e-02 9.203476e-03 
    32.5                2.570464e-03 3.086589e-03 2.357537e-03 3.287257e-03 1.120502e-02 3.871951e-07 2.817183e-03 2.348926e-03 2.349730e-03 1.308472e-02 1.306552e-02 8.876658e-03 
    33.5                2.629651e-03 2.994286e-03 2.355871e-03 3.259921e-03 1.082754e-02 3.347099e-07 2.802410e-03 2.170060e-03 2.170735e-03 1.270780e-02 1.268782e-02 8.826374e-03 
    34.5                2.629902e-03 3.049687e-03 2.387424e-03 3.308987e-03 1.090478e-02 2.458643e-07 2.838532e-03 2.083939e-03 2.084516e-03 1.279086e-02 1.276625e-02 8.932081e-03 
    35.5                2.537045e-03 2.934641e-03 2.304431e-03 3.156744e-03 1.004294e-02 1.858776e-07 2.720933e-03 1.946149e-03 1.946606e-03 1.188531e-02 1.186713e-02 8.586098e-03 
    36.5                2.589054e-03 2.839338e-03 2.307041e-03 3.146120e-03 9.795107e-03 1.172459e-07 2.715348e-03 1.816079e-03 1.816447e-03 1.164990e-02 1.161228e-02 8.547749e-03 
    37.5                2.665754e-03 2.959469e-03 2.366788e-03 3.219631e-03 9.898350e-03 7.920976e-08 2.779882e-03 1.758969e-03 1.759254e-03 1.180642e-02 1.181298e-02 8.808917e-03 
    38.5                2.862581e-03 2.874510e-03 2.448254e-03 3.282383e-03 9.669716e-03 6.949259e-08 2.854254e-03 1.688342e-03 1.688757e-03 1.169290e-02 1.166570e-02 9.003313e-03 
    39.5                2.756199e-03 3.100598e-03 2.539120e-03 3.366962e-03 9.591842e-03 6.263080e-08 2.943799e-03 1.638135e-03 1.638404e-03 1.172272e-02 1.166759e-02 9.234749e-03 
    40.5                2.840264e-03 3.046904e-03 2.519042e-03 3.334542e-03 9.404325e-03 5.239721e-08 2.915902e-03 1.570362e-03 1.570808e-03 1.151938e-02 1.152623e-02 9.225092e-03 
    41.5                3.137705e-03 3.080777e-03 2.698802e-03 3.515943e-03 9.438825e-03 5.706589e-08 3.099297e-03 1.551639e-03 1.551898e-03 1.177871e-02 1.175474e-02 9.763260e-03 
    42.5                3.044747e-03 3.356337e-03 2.826984e-03 3.623500e-03 9.188490e-03 6.274769e-08 3.218443e-03 1.544622e-03 1.544845e-03 1.172863e-02 1.167126e-02 1.009498e-02 
    43.5                3.221615e-03 3.259902e-03 2.811868e-03 3.569486e-03 8.753927e-03 5.995279e-08 3.186185e-03 1.497096e-03 1.497204e-03 1.133614e-02 1.137216e-02 1.010166e-02 
    44.5                3.544617e-03 3.415657e-03 3.098927e-03 3.889904e-03 9.119936e-03 5.236147e-08 3.490433e-03 1.543879e-03 1.544196e-03 1.202962e-02 1.197900e-02 1.095790e-02 
    45.5                3.524134e-03 3.764861e-03 3.217897e-03 4.012594e-03 9.153272e-03 4.486751e-08 3.612070e-03 1.547003e-03 1.547246e-03 1.220641e-02 1.222601e-02 1.140122e-02 
    46.5                3.616840e-03 3.687909e-03 3.263570e-03 4.035492e-03 8.905226e-03 1.004202e-07 3.648704e-03 1.512188e-03 1.512574e-03 1.206699e-02 1.205400e-02 1.147037e-02 
    47.5                3.859468e-03 3.828736e-03 3.436078e-03 4.180933e-03 8.835239e-03 1.122698e-07 3.819266e-03 1.533815e-03 1.534533e-03 1.226495e-02 1.229463e-02 1.202150e-02 
    48.5                4.231252e-03 3.925553e-03 3.713196e-03 4.453544e-03 8.793407e-03 2.119371e-07 4.096459e-03 1.581757e-03 1.582227e-03 1.265554e-02 1.260878e-02 1.282205e-02 
    49.5                4.644722e-03 4.345988e-03 4.044309e-03 4.819606e-03 9.079783e-03 1.812378e-07 4.443353e-03 1.640710e-03 1.641186e-03 1.338318e-02 1.345136e-02 1.401864e-02 
    50.5                5.324890e-03 4.627327e-03 4.539914e-03 5.345743e-03 9.411429e-03 1.687143e-07 4.955878e-03 1.724659e-03 1.725095e-03 1.440234e-02 1.443690e-02 1.557967e-02 
    51.5                5.873947e-03 5.285168e-03 5.211700e-03 6.037086e-03 9.710204e-03 2.396653e-07 5.644013e-03 1.808606e-03 1.809255e-03 1.571035e-02 1.560965e-02 1.760176e-02 
    52.5                5.875975e-03 5.959328e-03 5.552159e-03 6.343213e-03 9.509225e-03 5.170470e-07 5.980053e-03 1.856532e-03 1.857285e-03 1.611631e-02 1.603327e-02 1.863637e-02 
    53.5                5.957768e-03 6.078272e-03 5.652516e-03 6.400623e-03 9.073886e-03 5.693341e-07 6.064506e-03 1.873612e-03 1.874504e-03 1.596643e-02 1.592224e-02 1.891842e-02 
    54.5                5.610233e-03 6.187500e-03 5.597064e-03 6.306658e-03 8.582158e-03 4.835620e-07 5.988240e-03 1.854726e-03 1.855721e-03 1.551325e-02 1.539625e-02 1.862302e-02 
    55.5                5.658857e-03 6.113846e-03 5.468686e-03 6.156659e-03 8.183306e-03 3.202889e-07 5.842804e-03 1.827737e-03 1.828228e-03 1.501844e-02 1.510675e-02 1.837090e-02 
    56.5                5.395523e-03 5.982611e-03 5.377971e-03 6.033518e-03 7.773017e-03 2.702093e-07 5.734727e-03 1.785442e-03 1.785873e-03 1.456255e-02 1.452123e-02 1.789551e-02 
    57.5                4.927330e-03 5.758784e-03 5.029026e-03 5.616020e-03 7.050810e-03 3.264945e-07 5.354111e-03 1.696346e-03 1.696709e-03 1.345936e-02 1.347482e-02 1.676124e-02 
    58.5                4.727849e-03 5.298840e-03 4.729828e-03 5.256123e-03 6.370241e-03 4.001324e-07 5.025430e-03 1.570286e-03 1.570805e-03 1.246721e-02 1.247805e-02 1.571731e-02 
    59.5                4.508480e-03 5.010349e-03 4.519562e-03 5.002124e-03 5.868981e-03 3.217332e-07 4.792522e-03 1.441745e-03 1.442410e-03 1.174410e-02 1.173441e-02 1.494986e-02 
    60.5                4.100242e-03 4.837616e-03 4.232634e-03 4.665015e-03 5.306784e-03 2.485933e-07 4.481327e-03 1.287885e-03 1.288471e-03 1.086893e-02 1.088645e-02 1.400691e-02 
    61.5                3.574366e-03 4.380324e-03 3.842477e-03 4.210867e-03 4.537785e-03 2.434125e-07 4.056310e-03 1.128336e-03 1.128737e-03 9.677357e-03 9.587528e-03 1.257946e-02 
    62.5                2.928408e-03 4.043951e-03 3.294486e-03 3.596203e-03 3.755441e-03 2.860438e-07 3.473233e-03 9.635484e-04 9.639148e-04 8.213478e-03 8.262077e-03 1.088517e-02 
    63.5                2.386848e-03 3.303284e-03 2.701342e-03 2.936424e-03 2.962370e-03 2.179472e-07 2.843188e-03 7.923232e-04 7.926397e-04 6.649590e-03 6.691887e-03 8.895817e-03 
    64.5                1.911081e-03 2.720240e-03 2.193163e-03 2.379877e-03 2.342280e-03 1.852068e-07 2.305963e-03 6.278494e-04 6.280993e-04 5.359927e-03 5.402743e-03 7.230144e-03 
    65.5                1.461620e-03 2.161901e-03 1.740372e-03 1.875498e-03 1.764364e-03 2.356348e-07 1.826094e-03 4.744619e-04 4.747441e-04 4.189769e-03 4.191226e-03 5.687020e-03 
    66.5                1.040087e-03 1.735040e-03 1.331064e-03 1.419647e-03 1.281090e-03 2.694379e-07 1.394001e-03 3.405482e-04 3.408387e-04 3.156003e-03 3.172129e-03 4.339582e-03 
    67.5                6.661872e-04 1.273926e-03 9.232764e-04 9.784499e-04 8.407606e-04 1.995143e-07 9.652187e-04 2.216947e-04 2.219375e-04 2.159208e-03 2.189600e-03 3.017662e-03 
    68.5                3.756436e-04 8.558659e-04 5.859034e-04 6.167067e-04 4.936767e-04 1.499158e-07 6.109531e-04 1.277740e-04 1.279023e-04 1.347360e-03 1.370164e-03 1.912410e-03 
    69.5                1.680089e-04 5.233794e-04 3.254469e-04 3.350927e-04 2.482526e-04 1.425941e-07 3.385323e-04 6.245181e-05 6.259972e-05 7.305459e-04 7.554397e-04 1.061149e-03 
    70.5                4.419683e-05 2.632950e-04 1.429180e-04 1.390370e-04 9.453033e-05 1.244914e-07 1.480644e-04 2.382759e-05 2.396938e-05 3.077872e-04 3.292875e-04 4.631204e-04 
    71.5                6.366431e-06 9.607545e-05 4.137763e-05 3.620047e-05 2.366497e-05 6.923341e-08 4.278969e-05 6.102546e-06 6.188333e-06 8.420686e-05 1.066293e-04 1.413596e-04 
    72.5                1.439380e-07 1.744161e-05 6.745986e-06 4.424478e-06 2.744020e-06 2.192774e-08 6.942319e-06 8.765395e-07 9.074284e-07 1.192554e-05 1.792599e-05 2.269695e-05 
    73.5                0.000000e+00 1.484312e-06 3.913073e-07 1.890656e-07 9.630666e-08 3.613297e-09 4.040645e-07 3.961388e-08 4.209803e-08 6.022597e-07 1.489776e-06 1.649900e-06 
    74.5                0.000000e+00 0.000000e+00 0.000000e+00 0.000000e+00 0.000000e+00 0.000000e+00 0.000000e+00 0.000000e+00 0.000000e+00 0.000000e+00 0.000000e+00 0.000000e+00 
    75.5                0.000000e+00 0.000000e+00 0.000000e+00 0.000000e+00 0.000000e+00 0.000000e+00 0.000000e+00 0.000000e+00 0.000000e+00 0.000000e+00 0.000000e+00 0.000000e+00 
    76.5                0.000000e+00 0.000000e+00 0.000000e+00 0.000000e+00 0.000000e+00 0.000000e+00 0.000000e+00 0.000000e+00 0.000000e+00 0.000000e+00 0.000000e+00 0.000000e+00 
    77.5                0.000000e+00 0.000000e+00 0.000000e+00 0.000000e+00 0.000000e+00 0.000000e+00 0.000000e+00 0.000000e+00 0.000000e+00 0.000000e+00 0.000000e+00 0.000000e+00 
    78.5                0.000000e+00 0.000000e+00 0.000000e+00 0.000000e+00 0.000000e+00 0.000000e+00 0.000000e+00 0.000000e+00 0.000000e+00 0.000000e+00 0.000000e+00 0.000000e+00 
    79.5                0.000000e+00 0.000000e+00 0.000000e+00 0.000000e+00 0.000000e+00 0.000000e+00 0.000000e+00 0.000000e+00 0.000000e+00 0.000000e+00 0.000000e+00 0.000000e+00 


