# 80 rows of flux data
# 12 columns of flux data
# 
# total cross-sectional flux  1.120642e+00 /m^2/yr
#
#                             +x ram      -x wake      +y port -y starboard    +z zenith     -z nadir        Earth          Sun     anti-Sun      rot (x)      rot (y)      rot (z) 
# average speed (km/s)         37.06        37.07        33.85        28.88        36.33        31.07        37.09        27.53        27.53        33.27        36.70        33.48 
# total flux (#/m2/yr)  2.519839e-01 2.517372e-01 3.165175e-01 3.613621e-01 5.106166e-01 3.997660e-04 2.514783e-01 1.851670e-01 1.851660e-01 9.319622e-01 7.996916e-01 9.173332e-01 
# velocity (km/s)
     0.5                0.000000e+00 0.000000e+00 0.000000e+00 0.000000e+00 0.000000e+00 0.000000e+00 0.000000e+00 0.000000e+00 0.000000e+00 0.000000e+00 0.000000e+00 0.000000e+00 
     1.5                0.000000e+00 0.000000e+00 0.000000e+00 0.000000e+00 0.000000e+00 0.000000e+00 0.000000e+00 0.000000e+00 0.000000e+00 0.000000e+00 0.000000e+00 0.000000e+00 
     2.5                9.146837e-05 9.225701e-05 6.443263e-05 9.002049e-05 1.058488e-04 9.734741e-08 9.107878e-05 7.542712e-05 7.577138e-05 2.086867e-04 2.270488e-04 2.654557e-04 
     3.5                4.304363e-04 4.313731e-04 3.123470e-04 3.543444e-04 6.808024e-04 4.695925e-07 4.282184e-04 3.848645e-04 3.846520e-04 1.074539e-03 1.213017e-03 1.187744e-03 
     4.5                9.533393e-04 9.526177e-04 8.209621e-04 8.008158e-04 1.787834e-03 9.996737e-07 9.481338e-04 9.507974e-04 9.509933e-04 2.696974e-03 2.903742e-03 2.741650e-03 
     5.5                1.538950e-03 1.536870e-03 1.494186e-03 1.411942e-03 3.060087e-03 1.679393e-06 1.529770e-03 1.675549e-03 1.675761e-03 4.701403e-03 4.825699e-03 4.648246e-03 
     6.5                2.149906e-03 2.145971e-03 2.308213e-03 2.272003e-03 4.417121e-03 2.544751e-06 2.137138e-03 2.464485e-03 2.464957e-03 7.076211e-03 6.854328e-03 6.920245e-03 
     7.5                2.689742e-03 2.685685e-03 3.070012e-03 3.242794e-03 5.589901e-03 3.509817e-06 2.673852e-03 3.167159e-03 3.167545e-03 9.367400e-03 8.626764e-03 9.122521e-03 
     8.5                3.156192e-03 3.150609e-03 3.835303e-03 4.234989e-03 6.666196e-03 4.494094e-06 3.138300e-03 3.798281e-03 3.799229e-03 1.159514e-02 1.021437e-02 1.125475e-02 
     9.5                3.584786e-03 3.578989e-03 4.474278e-03 5.220627e-03 7.550701e-03 5.489382e-06 3.564722e-03 4.368656e-03 4.369396e-03 1.358979e-02 1.158278e-02 1.321999e-02 
    10.5                3.896058e-03 3.888764e-03 5.049851e-03 6.203791e-03 8.278015e-03 6.460155e-06 3.874909e-03 4.828022e-03 4.829112e-03 1.540743e-02 1.264898e-02 1.495291e-02 
    11.5                4.264921e-03 4.257916e-03 5.706526e-03 7.413907e-03 9.100074e-03 7.727193e-06 4.242737e-03 5.380126e-03 5.380982e-03 1.755254e-02 1.388039e-02 1.705960e-02 
    12.5                4.521242e-03 4.513242e-03 6.222036e-03 8.322235e-03 9.683189e-03 8.591854e-06 4.497416e-03 5.808191e-03 5.808637e-03 1.914762e-02 1.474795e-02 1.857908e-02 
    13.5                4.628595e-03 4.619862e-03 6.620833e-03 9.297452e-03 1.011170e-02 9.311078e-06 4.607493e-03 5.979770e-03 5.980834e-03 2.058419e-02 1.525894e-02 1.993904e-02 
    14.5                4.604746e-03 4.598054e-03 6.545246e-03 9.726620e-03 9.971196e-03 9.863932e-06 4.584027e-03 5.991983e-03 5.992742e-03 2.081328e-02 1.511543e-02 2.021708e-02 
    15.5                4.747094e-03 4.738453e-03 7.001821e-03 1.071731e-02 1.036937e-02 1.071669e-05 4.727914e-03 6.112263e-03 6.113191e-03 2.229776e-02 1.565051e-02 2.164585e-02 
    16.5                4.709253e-03 4.700912e-03 7.030077e-03 1.093304e-02 1.029903e-02 1.097342e-05 4.691050e-03 6.099954e-03 6.100583e-03 2.245242e-02 1.554324e-02 2.180502e-02 
    17.5                4.734658e-03 4.726060e-03 7.118694e-03 1.126468e-02 1.037052e-02 1.133615e-05 4.717021e-03 6.083168e-03 6.083988e-03 2.284042e-02 1.564008e-02 2.218240e-02 
    18.5                4.736072e-03 4.727617e-03 7.192188e-03 1.165820e-02 1.034083e-02 1.169443e-05 4.719922e-03 5.995252e-03 5.995922e-03 2.321856e-02 1.561590e-02 2.256510e-02 
    19.5                4.725461e-03 4.718067e-03 7.243304e-03 1.165960e-02 1.024053e-02 1.183819e-05 4.709045e-03 5.891385e-03 5.891951e-03 2.317497e-02 1.552520e-02 2.255274e-02 
    20.5                4.622327e-03 4.614667e-03 7.201714e-03 1.150081e-02 1.007168e-02 1.140013e-05 4.607148e-03 5.667226e-03 5.667759e-03 2.287351e-02 1.522287e-02 2.220352e-02 
    21.5                4.531903e-03 4.526298e-03 7.086033e-03 1.153453e-02 9.798742e-03 1.157271e-05 4.518989e-03 5.433570e-03 5.433873e-03 2.259959e-02 1.487489e-02 2.199808e-02 
    22.5                4.603837e-03 4.596118e-03 7.257211e-03 1.179625e-02 9.938695e-03 1.177263e-05 4.591622e-03 5.362198e-03 5.362549e-03 2.304591e-02 1.509043e-02 2.242142e-02 
    23.5                4.337084e-03 4.329911e-03 6.984213e-03 1.108791e-02 9.433625e-03 1.105330e-05 4.326301e-03 5.010365e-03 5.010733e-03 2.184730e-02 1.427596e-02 2.120850e-02 
    24.5                4.147878e-03 4.142053e-03 6.631374e-03 1.046828e-02 8.877946e-03 1.075877e-05 4.137354e-03 4.688730e-03 4.689157e-03 2.063491e-02 1.353955e-02 2.007915e-02 
    25.5                4.042636e-03 4.035885e-03 6.588835e-03 1.021291e-02 8.663793e-03 1.041357e-05 4.032293e-03 4.417019e-03 4.417028e-03 2.020812e-02 1.320313e-02 1.965166e-02 
    26.5                3.922901e-03 3.917811e-03 6.312119e-03 9.626357e-03 8.266606e-03 1.001485e-05 3.912585e-03 4.148217e-03 4.148541e-03 1.919907e-02 1.270278e-02 1.871581e-02 
    27.5                3.837568e-03 3.832649e-03 6.269536e-03 9.175027e-03 8.081327e-03 9.500338e-06 3.827905e-03 3.950685e-03 3.950304e-03 1.862223e-02 1.242227e-02 1.812745e-02 
    28.5                3.671624e-03 3.666429e-03 5.988852e-03 8.652527e-03 7.697460e-03 8.955822e-06 3.662722e-03 3.674337e-03 3.674860e-03 1.765819e-02 1.185659e-02 1.718698e-02 
    29.5                3.524391e-03 3.518998e-03 5.798802e-03 8.216465e-03 7.385850e-03 8.511794e-06 3.516755e-03 3.331963e-03 3.331914e-03 1.689028e-02 1.137448e-02 1.643183e-02 
    30.5                3.276360e-03 3.271788e-03 5.425199e-03 7.741735e-03 6.848344e-03 8.044653e-06 3.270537e-03 3.034570e-03 3.034543e-03 1.580880e-02 1.056500e-02 1.538573e-02 
    31.5                3.206136e-03 3.202866e-03 5.290872e-03 7.342316e-03 6.599311e-03 7.658687e-06 3.199973e-03 2.866333e-03 2.866311e-03 1.515864e-02 1.026227e-02 1.478437e-02 
    32.5                3.092466e-03 3.086201e-03 5.143318e-03 6.814807e-03 6.381532e-03 6.886292e-06 3.087123e-03 2.630649e-03 2.630635e-03 1.439852e-02 9.908613e-03 1.403311e-02 
    33.5                3.038473e-03 3.035334e-03 4.908143e-03 6.341352e-03 6.166306e-03 6.503779e-06 3.033273e-03 2.396182e-03 2.396014e-03 1.363914e-02 9.655224e-03 1.332021e-02 
    34.5                3.098869e-03 3.096466e-03 5.039338e-03 6.399875e-03 6.270684e-03 6.463695e-06 3.094606e-03 2.285008e-03 2.284750e-03 1.385107e-02 9.832211e-03 1.352988e-02 
    35.5                2.962150e-03 2.956989e-03 4.791329e-03 5.762674e-03 5.994342e-03 5.699075e-06 2.958033e-03 2.152108e-03 2.152031e-03 1.288251e-02 9.400338e-03 1.258366e-02 
    36.5                2.929419e-03 2.926974e-03 4.551322e-03 5.453785e-03 5.795512e-03 5.530054e-06 2.925155e-03 1.988871e-03 1.988638e-03 1.228336e-02 9.193478e-03 1.205445e-02 
    37.5                3.000025e-03 2.997259e-03 4.742831e-03 5.542702e-03 6.027019e-03 5.467767e-06 2.997165e-03 1.918220e-03 1.917819e-03 1.265945e-02 9.490322e-03 1.237320e-02 
    38.5                2.981561e-03 2.981492e-03 4.548645e-03 5.186832e-03 5.837113e-03 5.217199e-06 2.978568e-03 1.815762e-03 1.815659e-03 1.205789e-02 9.316282e-03 1.188286e-02 
    39.5                3.204176e-03 3.201506e-03 4.740661e-03 5.170595e-03 6.263007e-03 5.139702e-06 3.202277e-03 1.776212e-03 1.775748e-03 1.248094e-02 9.986029e-03 1.229456e-02 
    40.5                3.110494e-03 3.111546e-03 4.599570e-03 4.965691e-03 6.147071e-03 4.938266e-06 3.107938e-03 1.701050e-03 1.700854e-03 1.210947e-02 9.763052e-03 1.187896e-02 
    41.5                3.193897e-03 3.191606e-03 4.617658e-03 4.841737e-03 6.198180e-03 4.856880e-06 3.191534e-03 1.621009e-03 1.620516e-03 1.203687e-02 9.936488e-03 1.189294e-02 
    42.5                3.468565e-03 3.467306e-03 4.788891e-03 4.726912e-03 6.710689e-03 4.739128e-06 3.465408e-03 1.660537e-03 1.660292e-03 1.243573e-02 1.076320e-02 1.231952e-02 
    43.5                3.313543e-03 3.310770e-03 4.498079e-03 4.302846e-03 6.502215e-03 4.375698e-06 3.311615e-03 1.572745e-03 1.572227e-03 1.171291e-02 1.035982e-02 1.154194e-02 
    44.5                3.591049e-03 3.591984e-03 4.587673e-03 4.341894e-03 6.803992e-03 4.691834e-06 3.586685e-03 1.590108e-03 1.589734e-03 1.204074e-02 1.104216e-02 1.202871e-02 
    45.5                3.833221e-03 3.830848e-03 4.926309e-03 4.406072e-03 7.470522e-03 4.626650e-06 3.830429e-03 1.661818e-03 1.661515e-03 1.282471e-02 1.193601e-02 1.266730e-02 
    46.5                3.799403e-03 3.801510e-03 4.762025e-03 4.227566e-03 7.312971e-03 4.572618e-06 3.797626e-03 1.585896e-03 1.585255e-03 1.243043e-02 1.176897e-02 1.234922e-02 
    47.5                3.963479e-03 3.959195e-03 4.806880e-03 4.129676e-03 7.576305e-03 4.546930e-06 3.959571e-03 1.574697e-03 1.574169e-03 1.259648e-02 1.222329e-02 1.258482e-02 
    48.5                4.092651e-03 4.093853e-03 4.727611e-03 3.904753e-03 7.738205e-03 4.655604e-06 4.088880e-03 1.629492e-03 1.629139e-03 1.250414e-02 1.257784e-02 1.258302e-02 
    49.5                4.523956e-03 4.526708e-03 4.988951e-03 3.919541e-03 8.549330e-03 4.775956e-06 4.521425e-03 1.670232e-03 1.669515e-03 1.335051e-02 1.388004e-02 1.345066e-02 
    50.5                4.876225e-03 4.879454e-03 5.189786e-03 3.953807e-03 9.094879e-03 5.133924e-06 4.872179e-03 1.739081e-03 1.738306e-03 1.394712e-02 1.488577e-02 1.417137e-02 
    51.5                5.621291e-03 5.623308e-03 5.590231e-03 3.968935e-03 1.036273e-02 5.625534e-06 5.615709e-03 1.839623e-03 1.839219e-03 1.527096e-02 1.706245e-02 1.568525e-02 
    52.5                6.179532e-03 6.187007e-03 5.898344e-03 3.822797e-03 1.164664e-02 5.677361e-06 6.175392e-03 1.911202e-03 1.910093e-03 1.645779e-02 1.893697e-02 1.676613e-02 
    53.5                6.231354e-03 6.233410e-03 5.724814e-03 3.500640e-03 1.185031e-02 5.588233e-06 6.227423e-03 1.939733e-03 1.939046e-03 1.630161e-02 1.917996e-02 1.655322e-02 
    54.5                6.363748e-03 6.355914e-03 5.656893e-03 3.283981e-03 1.205678e-02 5.451639e-06 6.360735e-03 1.943829e-03 1.943543e-03 1.628060e-02 1.953116e-02 1.659683e-02 
    55.5                6.092623e-03 6.087951e-03 5.413093e-03 2.990962e-03 1.190530e-02 5.131015e-06 6.088388e-03 1.908187e-03 1.907403e-03 1.578969e-02 1.898566e-02 1.580141e-02 
    56.5                6.089480e-03 6.088323e-03 5.222238e-03 2.827255e-03 1.165109e-02 5.076500e-06 6.084960e-03 1.882283e-03 1.881713e-03 1.534254e-02 1.877562e-02 1.556390e-02 
    57.5                5.769446e-03 5.764074e-03 4.957341e-03 2.588679e-03 1.120394e-02 4.670584e-06 5.765921e-03 1.826014e-03 1.825421e-03 1.460546e-02 1.792166e-02 1.469929e-02 
    58.5                5.302081e-03 5.301338e-03 4.450511e-03 2.226945e-03 1.029976e-02 4.285471e-06 5.300061e-03 1.697210e-03 1.696550e-03 1.325141e-02 1.647917e-02 1.335577e-02 
    59.5                5.055549e-03 5.053682e-03 4.132420e-03 2.005992e-03 9.735911e-03 4.021250e-06 5.051848e-03 1.567452e-03 1.567071e-03 1.241524e-02 1.563632e-02 1.258095e-02 
    60.5                4.843660e-03 4.835399e-03 3.920227e-03 1.812474e-03 9.393815e-03 3.723720e-06 4.841339e-03 1.425969e-03 1.425820e-03 1.184324e-02 1.502225e-02 1.196986e-02 
    61.5                4.388568e-03 4.387940e-03 3.454241e-03 1.522863e-03 8.502251e-03 3.421626e-06 4.385898e-03 1.256221e-03 1.255751e-03 1.059672e-02 1.362287e-02 1.073357e-02 
    62.5                3.903259e-03 3.897929e-03 3.061077e-03 1.212817e-03 7.836760e-03 2.761393e-06 3.901911e-03 1.095244e-03 1.094876e-03 9.560819e-03 1.230633e-02 9.475133e-03 
    63.5                3.191749e-03 3.184203e-03 2.446274e-03 9.306010e-04 6.399501e-03 2.243742e-06 3.190711e-03 9.134986e-04 9.133341e-04 7.745653e-03 1.005614e-02 7.673861e-03 
    64.5                2.617090e-03 2.614141e-03 1.987316e-03 7.229237e-04 5.269472e-03 1.815872e-06 2.616506e-03 7.414400e-04 7.411573e-04 6.329752e-03 8.264649e-03 6.267276e-03 
    65.5                2.073529e-03 2.071268e-03 1.550306e-03 5.356345e-04 4.184944e-03 1.434725e-06 2.073330e-03 5.705673e-04 5.703958e-04 4.986382e-03 6.557524e-03 4.932328e-03 
    66.5                1.628307e-03 1.624838e-03 1.202640e-03 3.766593e-04 3.353367e-03 1.058464e-06 1.628328e-03 4.253740e-04 4.251966e-04 3.940223e-03 5.195628e-03 3.846775e-03 
    67.5                1.172116e-03 1.167212e-03 8.581398e-04 2.426131e-04 2.458288e-03 7.171503e-07 1.172355e-03 2.903318e-04 2.902993e-04 2.853239e-03 3.771321e-03 2.751285e-03 
    68.5                7.642988e-04 7.616395e-04 5.531161e-04 1.334163e-04 1.651411e-03 4.483928e-07 7.646938e-04 1.773966e-04 1.773050e-04 1.886664e-03 2.497293e-03 1.783071e-03 
    69.5                4.489077e-04 4.471547e-04 3.216120e-04 6.082549e-05 1.008160e-03 2.277870e-07 4.495200e-04 9.342475e-05 9.340248e-05 1.131135e-03 1.493534e-03 1.040398e-03 
    70.5                2.118693e-04 2.108382e-04 1.520411e-04 1.948633e-05 5.044564e-04 9.097663e-08 2.122588e-04 3.929328e-05 3.927435e-05 5.546281e-04 7.264326e-04 4.885719e-04 
    71.5                6.411530e-05 6.375154e-05 5.125749e-05 2.880940e-06 1.814762e-04 1.752716e-08 6.438042e-05 1.079729e-05 1.079378e-05 1.947043e-04 2.421728e-04 1.499277e-04 
    72.5                9.654301e-06 9.564164e-06 8.592709e-06 9.983056e-08 3.165600e-05 1.652865e-09 9.729064e-06 1.610721e-06 1.612071e-06 3.332566e-05 4.004569e-05 2.286496e-05 
    73.5                4.988966e-07 4.925051e-07 6.452746e-07 0.000000e+00 2.403279e-06 0.000000e+00 5.065163e-07 6.730758e-08 6.730053e-08 2.496837e-06 2.699567e-06 1.271073e-06 
    74.5                0.000000e+00 0.000000e+00 0.000000e+00 0.000000e+00 0.000000e+00 0.000000e+00 0.000000e+00 0.000000e+00 0.000000e+00 0.000000e+00 0.000000e+00 0.000000e+00 
    75.5                0.000000e+00 0.000000e+00 0.000000e+00 0.000000e+00 0.000000e+00 0.000000e+00 0.000000e+00 0.000000e+00 0.000000e+00 0.000000e+00 0.000000e+00 0.000000e+00 
    76.5                0.000000e+00 0.000000e+00 0.000000e+00 0.000000e+00 0.000000e+00 0.000000e+00 0.000000e+00 0.000000e+00 0.000000e+00 0.000000e+00 0.000000e+00 0.000000e+00 
    77.5                0.000000e+00 0.000000e+00 0.000000e+00 0.000000e+00 0.000000e+00 0.000000e+00 0.000000e+00 0.000000e+00 0.000000e+00 0.000000e+00 0.000000e+00 0.000000e+00 
    78.5                0.000000e+00 0.000000e+00 0.000000e+00 0.000000e+00 0.000000e+00 0.000000e+00 0.000000e+00 0.000000e+00 0.000000e+00 0.000000e+00 0.000000e+00 0.000000e+00 
    79.5                0.000000e+00 0.000000e+00 0.000000e+00 0.000000e+00 0.000000e+00 0.000000e+00 0.000000e+00 0.000000e+00 0.000000e+00 0.000000e+00 0.000000e+00 0.000000e+00 


