# 80 rows of flux data
# 12 columns of flux data
# 
# total cross-sectional flux  2.205240e+00 /m^2/yr
#
#                             +x ram      -x wake      +y port -y starboard    +z zenith     -z nadir        Earth          Sun     anti-Sun      rot (x)      rot (y)      rot (z) 
# average speed (km/s)         24.67        23.84        25.00        18.06        23.27        23.92        18.49        24.65        24.64        23.56        24.00        24.18 
# total flux (#/m2/yr)  7.364802e-01 6.279038e-01 1.005657e+00 1.645272e-01 7.541828e-01 1.012839e-03 1.084622e-01 9.694544e-01 9.574946e-01 1.474201e+00 1.705636e+00 1.995632e+00 
# velocity (km/s)
     0.5                0.000000e+00 0.000000e+00 0.000000e+00 0.000000e+00 0.000000e+00 0.000000e+00 0.000000e+00 0.000000e+00 0.000000e+00 0.000000e+00 0.000000e+00 0.000000e+00 
     1.5                0.000000e+00 0.000000e+00 0.000000e+00 0.000000e+00 0.000000e+00 0.000000e+00 0.000000e+00 0.000000e+00 0.000000e+00 0.000000e+00 0.000000e+00 0.000000e+00 
     2.5                0.000000e+00 5.670538e-06 9.797961e-07 1.184760e-06 2.389137e-06 3.358458e-10 6.889816e-07 1.441193e-06 4.155073e-07 3.524877e-06 6.293435e-06 6.255240e-06 
     3.5                3.772030e-06 1.356302e-04 6.890858e-05 3.437283e-05 8.136710e-05 7.231370e-08 2.250471e-05 5.640972e-05 3.190188e-05 1.421341e-04 1.749443e-04 1.909955e-04 
     4.5                1.419674e-04 5.852806e-04 4.160457e-04 1.842933e-04 4.508429e-04 4.634816e-07 1.194795e-04 2.928300e-04 2.097942e-04 8.168069e-04 9.341304e-04 1.043105e-03 
     5.5                6.424037e-04 1.541457e-03 1.394938e-03 6.380002e-04 1.499231e-03 1.489378e-06 4.130717e-04 9.817110e-04 8.217229e-04 2.772045e-03 2.913628e-03 3.313961e-03 
     6.5                2.044473e-03 2.867582e-03 3.032821e-03 1.462368e-03 3.328650e-03 3.631836e-06 9.519033e-04 2.227934e-03 2.038130e-03 6.163405e-03 6.523438e-03 7.393051e-03 
     7.5                3.742070e-03 5.047134e-03 5.291264e-03 2.634094e-03 6.005968e-03 6.490326e-06 1.681020e-03 4.046935e-03 3.892988e-03 1.098205e-02 1.170796e-02 1.313270e-02 
     8.5                6.256493e-03 7.503663e-03 8.584728e-03 4.084632e-03 9.450336e-03 1.039458e-05 2.629357e-03 6.563013e-03 6.516275e-03 1.744529e-02 1.835256e-02 2.075752e-02 
     9.5                9.547969e-03 9.510882e-03 1.195557e-02 5.689970e-03 1.316159e-02 1.496401e-05 3.656201e-03 9.646238e-03 9.648353e-03 2.432782e-02 2.549976e-02 2.883237e-02 
    10.5                1.281544e-02 1.152578e-02 1.452737e-02 7.453482e-03 1.680051e-02 1.861237e-05 4.733046e-03 1.318026e-02 1.308801e-02 3.064004e-02 3.255421e-02 3.639403e-02 
    11.5                1.501504e-02 1.323240e-02 1.703252e-02 8.764973e-03 1.996170e-02 2.116697e-05 5.484144e-03 1.667305e-02 1.649340e-02 3.610764e-02 3.812926e-02 4.247443e-02 
    12.5                1.721282e-02 1.450969e-02 1.913296e-02 9.493833e-03 2.218215e-02 2.369399e-05 5.844491e-03 1.974564e-02 1.955748e-02 4.002618e-02 4.267192e-02 4.741813e-02 
    13.5                1.850544e-02 1.649172e-02 2.141512e-02 9.969265e-03 2.407659e-02 2.641215e-05 6.106932e-03 2.273219e-02 2.254195e-02 4.361354e-02 4.684838e-02 5.215132e-02 
    14.5                2.021050e-02 1.823559e-02 2.441717e-02 1.016502e-02 2.581324e-02 2.969237e-05 6.271461e-03 2.594177e-02 2.571796e-02 4.740076e-02 5.107631e-02 5.738271e-02 
    15.5                2.198812e-02 1.983195e-02 2.742118e-02 9.965432e-03 2.708976e-02 3.272417e-05 6.204103e-03 2.899053e-02 2.873726e-02 5.046968e-02 5.491039e-02 6.225211e-02 
    16.5                2.388707e-02 2.126773e-02 3.020763e-02 9.778310e-03 2.832576e-02 3.521634e-05 6.156732e-03 3.183965e-02 3.156269e-02 5.333072e-02 5.867684e-02 6.692039e-02 
    17.5                2.525974e-02 2.265787e-02 3.275080e-02 9.328254e-03 2.909692e-02 3.741087e-05 5.948421e-03 3.439311e-02 3.410006e-02 5.542612e-02 6.159897e-02 7.074918e-02 
    18.5                2.653102e-02 2.366788e-02 3.521725e-02 8.744229e-03 2.959796e-02 3.957646e-05 5.675907e-03 3.665937e-02 3.634684e-02 5.714439e-02 6.394854e-02 7.403969e-02 
    19.5                2.774505e-02 2.442591e-02 3.708367e-02 8.281338e-03 2.999132e-02 4.142414e-05 5.446015e-03 3.848060e-02 3.815223e-02 5.842477e-02 6.596157e-02 7.671294e-02 
    20.5                2.837370e-02 2.511518e-02 3.857459e-02 7.630199e-03 3.004157e-02 4.215364e-05 5.064681e-03 3.972915e-02 3.937662e-02 5.894956e-02 6.715872e-02 7.842258e-02 
    21.5                2.884481e-02 2.614870e-02 4.028012e-02 6.996959e-03 3.021495e-02 4.294836e-05 4.729119e-03 4.109248e-02 4.070453e-02 5.974871e-02 6.858027e-02 8.046016e-02 
    22.5                2.977025e-02 2.679649e-02 4.211508e-02 6.515134e-03 3.068030e-02 4.403308e-05 4.436914e-03 4.251457e-02 4.209105e-02 6.099996e-02 7.031451e-02 8.277832e-02 
    23.5                3.056183e-02 2.704719e-02 4.333657e-02 5.859579e-03 3.060280e-02 4.447030e-05 4.054566e-03 4.331920e-02 4.286287e-02 6.122138e-02 7.117683e-02 8.405226e-02 
    24.5                3.073038e-02 2.718207e-02 4.401226e-02 5.224032e-03 3.030292e-02 4.419185e-05 3.655055e-03 4.354987e-02 4.305984e-02 6.085328e-02 7.125467e-02 8.433807e-02 
    25.5                3.078074e-02 2.706137e-02 4.448249e-02 4.550559e-03 2.986455e-02 4.353609e-05 3.226235e-03 4.347473e-02 4.295167e-02 6.017433e-02 7.091533e-02 8.414170e-02 
    26.5                3.064670e-02 2.637290e-02 4.427382e-02 3.938401e-03 2.912774e-02 4.236822e-05 2.818537e-03 4.280955e-02 4.226937e-02 5.881032e-02 6.971212e-02 8.286752e-02 
    27.5                3.001237e-02 2.570152e-02 4.342317e-02 3.390639e-03 2.808745e-02 4.104045e-05 2.456746e-03 4.166584e-02 4.112050e-02 5.680144e-02 6.788381e-02 8.076370e-02 
    28.5                2.904026e-02 2.483011e-02 4.240450e-02 2.875799e-03 2.702155e-02 3.904806e-05 2.099477e-03 4.022156e-02 3.966852e-02 5.467563e-02 6.555501e-02 7.811552e-02 
    29.5                2.813595e-02 2.367452e-02 4.100246e-02 2.397790e-03 2.575821e-02 3.715246e-05 1.774866e-03 3.852524e-02 3.797443e-02 5.216512e-02 6.290891e-02 7.502850e-02 
    30.5                2.684234e-02 2.238235e-02 3.915717e-02 1.961556e-03 2.430901e-02 3.473951e-05 1.467961e-03 3.643706e-02 3.589738e-02 4.921402e-02 5.966715e-02 7.121351e-02 
    31.5                2.540895e-02 2.087285e-02 3.700305e-02 1.578513e-03 2.271036e-02 3.233658e-05 1.202467e-03 3.408137e-02 3.356019e-02 4.597641e-02 5.601197e-02 6.691574e-02 
    32.5                2.376200e-02 1.913361e-02 3.445282e-02 1.256151e-03 2.095324e-02 2.962261e-05 9.737532e-04 3.139592e-02 3.090407e-02 4.239277e-02 5.185400e-02 6.199920e-02 
    33.5                2.193000e-02 1.718148e-02 3.147764e-02 9.930047e-04 1.900241e-02 2.684221e-05 7.855509e-04 2.841296e-02 2.795772e-02 3.842672e-02 4.721689e-02 5.647712e-02 
    34.5                1.980355e-02 1.523171e-02 2.824794e-02 7.735529e-04 1.695012e-02 2.385782e-05 6.250108e-04 2.525916e-02 2.484787e-02 3.424945e-02 4.225167e-02 5.055481e-02 
    35.5                1.763947e-02 1.329075e-02 2.497092e-02 5.865964e-04 1.489803e-02 2.095131e-05 4.864377e-04 2.211651e-02 2.175091e-02 3.007818e-02 3.725987e-02 4.459531e-02 
    36.5                1.545197e-02 1.140730e-02 2.174003e-02 4.306772e-04 1.289841e-02 1.807679e-05 3.703505e-04 1.904503e-02 1.872548e-02 2.601922e-02 3.233062e-02 3.871841e-02 
    37.5                1.335676e-02 9.583216e-03 1.858606e-02 3.104449e-04 1.097705e-02 1.537059e-05 2.778049e-04 1.611009e-02 1.583816e-02 2.212281e-02 2.758748e-02 3.304731e-02 
    38.5                1.130437e-02 7.787263e-03 1.550259e-02 2.167671e-04 9.118913e-03 1.274716e-05 2.037673e-04 1.328521e-02 1.306018e-02 1.836261e-02 2.295002e-02 2.750670e-02 
    39.5                9.339261e-03 6.051205e-03 1.248651e-02 1.464854e-04 7.320179e-03 1.025377e-05 1.458868e-04 1.058735e-02 1.040946e-02 1.472897e-02 1.848075e-02 2.214941e-02 
    40.5                7.402288e-03 4.471316e-03 9.609301e-03 9.437340e-05 5.617822e-03 7.924905e-06 1.004873e-04 8.065602e-03 7.931959e-03 1.129466e-02 1.423975e-02 1.706114e-02 
    41.5                5.600554e-03 3.153137e-03 7.043610e-03 5.798578e-05 4.108635e-03 5.854411e-06 6.668721e-05 5.861442e-03 5.766853e-03 8.254059e-03 1.047735e-02 1.254172e-02 
    42.5                4.023868e-03 2.103765e-03 4.921063e-03 3.391470e-05 2.865264e-03 4.102210e-06 4.241610e-05 4.051628e-03 3.987838e-03 5.752007e-03 7.327726e-03 8.769513e-03 
    43.5                2.767923e-03 1.258964e-03 3.221006e-03 1.868162e-05 1.872595e-03 2.706460e-06 2.562303e-05 2.625358e-03 2.586144e-03 3.757035e-03 4.809284e-03 5.751981e-03 
    44.5                1.757769e-03 6.541611e-04 1.894594e-03 9.603863e-06 1.100281e-03 1.640546e-06 1.452324e-05 1.539656e-03 1.519304e-03 2.206593e-03 2.867077e-03 3.418351e-03 
    45.5                9.817994e-04 2.707881e-04 9.592486e-04 4.350573e-06 5.565772e-04 8.684188e-07 7.273783e-06 7.805463e-04 7.718217e-04 1.115949e-03 1.479602e-03 1.756382e-03 
    46.5                4.587683e-04 7.928495e-05 3.876888e-04 1.707265e-06 2.248061e-04 3.909336e-07 3.138352e-06 3.221014e-04 3.197906e-04 4.507979e-04 6.266381e-04 7.361222e-04 
    47.5                1.583925e-04 1.542961e-05 1.139755e-04 5.338503e-07 6.606617e-05 1.359308e-07 1.060885e-06 9.868443e-05 9.860788e-05 1.325443e-04 1.984922e-04 2.295687e-04 
    48.5                3.828597e-05 1.373202e-06 2.295011e-05 1.170610e-07 1.329554e-05 3.326102e-08 2.513385e-07 2.111470e-05 2.125822e-05 2.669565e-05 4.417348e-05 5.008466e-05 
    49.5                5.342741e-06 1.187801e-08 2.472889e-06 1.615123e-08 1.432486e-06 4.914885e-09 3.679972e-08 2.590099e-06 2.640945e-06 2.881284e-06 5.733092e-06 6.287086e-06 
    50.5                1.557404e-07 0.000000e+00 4.740120e-08 5.352241e-10 2.747111e-08 1.674364e-10 1.220119e-09 6.702864e-08 6.878865e-08 5.554396e-08 1.596472e-07 1.667777e-07 
    51.5                0.000000e+00 0.000000e+00 0.000000e+00 0.000000e+00 0.000000e+00 0.000000e+00 0.000000e+00 0.000000e+00 0.000000e+00 0.000000e+00 0.000000e+00 0.000000e+00 
    52.5                0.000000e+00 0.000000e+00 0.000000e+00 0.000000e+00 0.000000e+00 0.000000e+00 0.000000e+00 0.000000e+00 0.000000e+00 0.000000e+00 0.000000e+00 0.000000e+00 
    53.5                0.000000e+00 0.000000e+00 0.000000e+00 0.000000e+00 0.000000e+00 0.000000e+00 0.000000e+00 0.000000e+00 0.000000e+00 0.000000e+00 0.000000e+00 0.000000e+00 
    54.5                0.000000e+00 0.000000e+00 0.000000e+00 0.000000e+00 0.000000e+00 0.000000e+00 0.000000e+00 0.000000e+00 0.000000e+00 0.000000e+00 0.000000e+00 0.000000e+00 
    55.5                0.000000e+00 0.000000e+00 0.000000e+00 0.000000e+00 0.000000e+00 0.000000e+00 0.000000e+00 0.000000e+00 0.000000e+00 0.000000e+00 0.000000e+00 0.000000e+00 
    56.5                0.000000e+00 0.000000e+00 0.000000e+00 0.000000e+00 0.000000e+00 0.000000e+00 0.000000e+00 0.000000e+00 0.000000e+00 0.000000e+00 0.000000e+00 0.000000e+00 
    57.5                0.000000e+00 0.000000e+00 0.000000e+00 0.000000e+00 0.000000e+00 0.000000e+00 0.000000e+00 0.000000e+00 0.000000e+00 0.000000e+00 0.000000e+00 0.000000e+00 
    58.5                0.000000e+00 0.000000e+00 0.000000e+00 0.000000e+00 0.000000e+00 0.000000e+00 0.000000e+00 0.000000e+00 0.000000e+00 0.000000e+00 0.000000e+00 0.000000e+00 
    59.5                0.000000e+00 0.000000e+00 0.000000e+00 0.000000e+00 0.000000e+00 0.000000e+00 0.000000e+00 0.000000e+00 0.000000e+00 0.000000e+00 0.000000e+00 0.000000e+00 
    60.5                0.000000e+00 0.000000e+00 0.000000e+00 0.000000e+00 0.000000e+00 0.000000e+00 0.000000e+00 0.000000e+00 0.000000e+00 0.000000e+00 0.000000e+00 0.000000e+00 
    61.5                0.000000e+00 0.000000e+00 0.000000e+00 0.000000e+00 0.000000e+00 0.000000e+00 0.000000e+00 0.000000e+00 0.000000e+00 0.000000e+00 0.000000e+00 0.000000e+00 
    62.5                0.000000e+00 0.000000e+00 0.000000e+00 0.000000e+00 0.000000e+00 0.000000e+00 0.000000e+00 0.000000e+00 0.000000e+00 0.000000e+00 0.000000e+00 0.000000e+00 
    63.5                0.000000e+00 0.000000e+00 0.000000e+00 0.000000e+00 0.000000e+00 0.000000e+00 0.000000e+00 0.000000e+00 0.000000e+00 0.000000e+00 0.000000e+00 0.000000e+00 
    64.5                0.000000e+00 0.000000e+00 0.000000e+00 0.000000e+00 0.000000e+00 0.000000e+00 0.000000e+00 0.000000e+00 0.000000e+00 0.000000e+00 0.000000e+00 0.000000e+00 
    65.5                0.000000e+00 0.000000e+00 0.000000e+00 0.000000e+00 0.000000e+00 0.000000e+00 0.000000e+00 0.000000e+00 0.000000e+00 0.000000e+00 0.000000e+00 0.000000e+00 
    66.5                0.000000e+00 0.000000e+00 0.000000e+00 0.000000e+00 0.000000e+00 0.000000e+00 0.000000e+00 0.000000e+00 0.000000e+00 0.000000e+00 0.000000e+00 0.000000e+00 
    67.5                0.000000e+00 0.000000e+00 0.000000e+00 0.000000e+00 0.000000e+00 0.000000e+00 0.000000e+00 0.000000e+00 0.000000e+00 0.000000e+00 0.000000e+00 0.000000e+00 
    68.5                0.000000e+00 0.000000e+00 0.000000e+00 0.000000e+00 0.000000e+00 0.000000e+00 0.000000e+00 0.000000e+00 0.000000e+00 0.000000e+00 0.000000e+00 0.000000e+00 
    69.5                0.000000e+00 0.000000e+00 0.000000e+00 0.000000e+00 0.000000e+00 0.000000e+00 0.000000e+00 0.000000e+00 0.000000e+00 0.000000e+00 0.000000e+00 0.000000e+00 
    70.5                0.000000e+00 0.000000e+00 0.000000e+00 0.000000e+00 0.000000e+00 0.000000e+00 0.000000e+00 0.000000e+00 0.000000e+00 0.000000e+00 0.000000e+00 0.000000e+00 
    71.5                0.000000e+00 0.000000e+00 0.000000e+00 0.000000e+00 0.000000e+00 0.000000e+00 0.000000e+00 0.000000e+00 0.000000e+00 0.000000e+00 0.000000e+00 0.000000e+00 
    72.5                0.000000e+00 0.000000e+00 0.000000e+00 0.000000e+00 0.000000e+00 0.000000e+00 0.000000e+00 0.000000e+00 0.000000e+00 0.000000e+00 0.000000e+00 0.000000e+00 
    73.5                0.000000e+00 0.000000e+00 0.000000e+00 0.000000e+00 0.000000e+00 0.000000e+00 0.000000e+00 0.000000e+00 0.000000e+00 0.000000e+00 0.000000e+00 0.000000e+00 
    74.5                0.000000e+00 0.000000e+00 0.000000e+00 0.000000e+00 0.000000e+00 0.000000e+00 0.000000e+00 0.000000e+00 0.000000e+00 0.000000e+00 0.000000e+00 0.000000e+00 
    75.5                0.000000e+00 0.000000e+00 0.000000e+00 0.000000e+00 0.000000e+00 0.000000e+00 0.000000e+00 0.000000e+00 0.000000e+00 0.000000e+00 0.000000e+00 0.000000e+00 
    76.5                0.000000e+00 0.000000e+00 0.000000e+00 0.000000e+00 0.000000e+00 0.000000e+00 0.000000e+00 0.000000e+00 0.000000e+00 0.000000e+00 0.000000e+00 0.000000e+00 
    77.5                0.000000e+00 0.000000e+00 0.000000e+00 0.000000e+00 0.000000e+00 0.000000e+00 0.000000e+00 0.000000e+00 0.000000e+00 0.000000e+00 0.000000e+00 0.000000e+00 
    78.5                0.000000e+00 0.000000e+00 0.000000e+00 0.000000e+00 0.000000e+00 0.000000e+00 0.000000e+00 0.000000e+00 0.000000e+00 0.000000e+00 0.000000e+00 0.000000e+00 
    79.5                0.000000e+00 0.000000e+00 0.000000e+00 0.000000e+00 0.000000e+00 0.000000e+00 0.000000e+00 0.000000e+00 0.000000e+00 0.000000e+00 0.000000e+00 0.000000e+00 


