# 80 rows of flux data
# 12 columns of flux data
# 
# total cross-sectional flux  1.040503e+00 /m^2/yr
#
#                             +x ram      -x wake      +y port -y starboard    +z zenith     -z nadir        Earth          Sun     anti-Sun      rot (x)      rot (y)      rot (z) 
# average speed (km/s)         37.07        38.36        42.57        33.02        31.87        46.03        36.04        28.12        27.93        34.02        34.35        36.97 
# total flux (#/m2/yr)  2.569047e-01 2.156659e-01 1.720516e-01 3.243962e-01 5.924198e-01 2.496815e-04 1.805577e-01 1.688968e-01 1.674354e-01 8.619286e-01 8.315668e-01 7.600658e-01 
# velocity (km/s)
     0.5                0.000000e+00 0.000000e+00 0.000000e+00 0.000000e+00 0.000000e+00 0.000000e+00 0.000000e+00 0.000000e+00 0.000000e+00 0.000000e+00 0.000000e+00 0.000000e+00 
     1.5                0.000000e+00 0.000000e+00 0.000000e+00 0.000000e+00 0.000000e+00 0.000000e+00 0.000000e+00 0.000000e+00 0.000000e+00 0.000000e+00 0.000000e+00 0.000000e+00 
     2.5                3.197614e-05 1.191559e-04 8.676908e-05 8.763391e-05 1.553140e-04 6.646839e-08 5.507355e-05 8.350785e-05 8.316015e-05 2.589322e-04 2.415976e-04 2.559829e-04 
     3.5                3.648301e-04 4.738826e-04 4.661300e-04 4.106826e-04 7.594156e-04 4.553187e-07 2.619537e-04 4.498871e-04 4.331649e-04 1.289691e-03 1.258202e-03 1.348034e-03 
     4.5                9.599759e-04 8.441127e-04 9.432006e-04 8.682247e-04 1.648947e-03 1.092776e-06 5.390801e-04 9.836445e-04 9.634278e-04 2.731304e-03 2.718946e-03 2.841188e-03 
     5.5                1.612386e-03 1.251610e-03 1.399575e-03 1.429668e-03 2.740952e-03 1.698157e-06 8.620498e-04 1.610040e-03 1.592444e-03 4.398677e-03 4.403508e-03 4.472854e-03 
     6.5                2.276401e-03 1.620377e-03 1.796822e-03 2.111427e-03 4.055722e-03 2.263958e-06 1.216761e-03 2.242553e-03 2.234899e-03 6.287363e-03 6.248804e-03 6.130378e-03 
     7.5                2.841278e-03 1.984560e-03 2.093377e-03 2.828979e-03 5.446981e-03 2.658672e-06 1.570434e-03 2.822557e-03 2.824881e-03 8.187588e-03 8.077979e-03 7.655433e-03 
     8.5                3.350439e-03 2.320169e-03 2.326340e-03 3.522524e-03 6.813793e-03 2.918869e-06 1.888071e-03 3.353781e-03 3.361727e-03 9.986438e-03 9.816126e-03 9.042597e-03 
     9.5                3.766599e-03 2.575171e-03 2.492897e-03 4.183436e-03 8.122598e-03 3.134672e-06 2.180603e-03 3.830342e-03 3.834106e-03 1.166901e-02 1.138573e-02 1.021763e-02 
    10.5                4.099817e-03 2.876115e-03 2.593906e-03 4.843009e-03 9.404960e-03 3.273010e-06 2.462670e-03 4.284537e-03 4.281427e-03 1.327508e-02 1.290564e-02 1.131247e-02 
    11.5                4.465170e-03 3.100598e-03 2.678793e-03 5.592713e-03 1.091532e-02 3.327832e-06 2.744177e-03 4.742621e-03 4.734901e-03 1.510973e-02 1.458712e-02 1.242775e-02 
    12.5                4.729866e-03 3.274481e-03 2.679450e-03 6.160782e-03 1.205586e-02 3.292763e-06 2.973941e-03 5.062393e-03 5.053099e-03 1.645428e-02 1.583840e-02 1.321871e-02 
    13.5                4.892296e-03 3.309935e-03 2.629937e-03 6.616840e-03 1.305107e-02 3.199300e-06 3.071798e-03 5.196915e-03 5.186015e-03 1.753976e-02 1.682980e-02 1.369967e-02 
    14.5                4.797296e-03 3.432296e-03 2.569788e-03 6.878647e-03 1.359658e-02 3.144806e-06 3.129961e-03 5.253985e-03 5.239724e-03 1.811577e-02 1.731917e-02 1.387724e-02 
    15.5                4.951695e-03 3.492772e-03 2.490963e-03 7.385015e-03 1.465079e-02 2.996030e-06 3.283296e-03 5.364144e-03 5.351802e-03 1.927346e-02 1.835495e-02 1.438158e-02 
    16.5                4.907709e-03 3.543628e-03 2.430354e-03 7.523366e-03 1.491509e-02 2.961996e-06 3.314806e-03 5.381785e-03 5.369764e-03 1.953762e-02 1.857405e-02 1.444462e-02 
    17.5                4.923301e-03 3.554211e-03 2.351172e-03 7.725459e-03 1.532826e-02 2.785361e-06 3.373978e-03 5.345612e-03 5.333328e-03 1.995372e-02 1.893202e-02 1.456598e-02 
    18.5                4.888550e-03 3.614625e-03 2.254926e-03 7.936186e-03 1.576685e-02 2.634250e-06 3.435169e-03 5.304673e-03 5.292118e-03 2.038592e-02 1.930711e-02 1.467503e-02 
    19.5                4.845629e-03 3.595778e-03 2.164849e-03 8.009081e-03 1.586096e-02 2.501701e-06 3.489128e-03 5.191169e-03 5.179223e-03 2.045768e-02 1.930412e-02 1.460405e-02 
    20.5                4.770563e-03 3.543108e-03 2.029512e-03 7.908392e-03 1.566325e-02 2.398491e-06 3.447726e-03 5.005528e-03 4.993948e-03 2.012651e-02 1.901704e-02 1.431794e-02 
    21.5                4.620825e-03 3.590393e-03 1.953628e-03 7.967425e-03 1.575983e-02 2.249196e-06 3.461892e-03 4.864569e-03 4.853401e-03 2.018253e-02 1.900749e-02 1.422551e-02 
    22.5                4.685010e-03 3.515540e-03 1.869576e-03 8.091388e-03 1.599591e-02 2.111481e-06 3.521757e-03 4.741055e-03 4.731122e-03 2.040717e-02 1.917965e-02 1.425100e-02 
    23.5                4.464956e-03 3.373210e-03 1.726483e-03 7.667451e-03 1.514221e-02 1.903710e-06 3.350470e-03 4.437951e-03 4.429327e-03 1.929275e-02 1.816829e-02 1.350840e-02 
    24.5                4.207196e-03 3.291219e-03 1.614745e-03 7.361228e-03 1.450882e-02 1.747358e-06 3.252408e-03 4.172781e-03 4.163926e-03 1.847672e-02 1.736683e-02 1.291118e-02 
    25.5                4.113665e-03 3.205240e-03 1.516847e-03 7.194030e-03 1.417064e-02 1.608042e-06 3.191533e-03 3.945426e-03 3.937627e-03 1.801247e-02 1.692784e-02 1.255686e-02 
    26.5                3.938248e-03 3.177180e-03 1.460233e-03 6.954762e-03 1.364182e-02 1.529907e-06 3.141515e-03 3.737288e-03 3.729516e-03 1.737705e-02 1.630843e-02 1.216233e-02 
    27.5                3.874213e-03 3.050485e-03 1.374543e-03 6.709800e-03 1.309302e-02 1.425056e-06 3.090020e-03 3.531144e-03 3.524019e-03 1.669850e-02 1.566950e-02 1.174950e-02 
    28.5                3.696165e-03 2.981493e-03 1.277316e-03 6.442823e-03 1.251361e-02 1.269780e-06 3.003995e-03 3.268356e-03 3.262365e-03 1.595836e-02 1.498072e-02 1.127127e-02 
    29.5                3.555790e-03 2.765373e-03 1.174471e-03 6.115282e-03 1.183980e-02 1.087357e-06 2.874194e-03 2.960423e-03 2.955252e-03 1.508732e-02 1.414983e-02 1.065224e-02 
    30.5                3.292238e-03 2.693155e-03 1.057069e-03 5.834955e-03 1.127687e-02 9.403437e-07 2.739679e-03 2.740832e-03 2.736373e-03 1.432906e-02 1.343528e-02 1.007323e-02 
    31.5                3.180182e-03 2.683923e-03 1.000140e-03 5.684528e-03 1.092199e-02 8.050653e-07 2.730497e-03 2.573960e-03 2.570416e-03 1.389759e-02 1.301896e-02 9.820106e-03 
    32.5                3.094260e-03 2.576572e-03 9.716657e-04 5.380340e-03 1.025724e-02 7.374514e-07 2.637603e-03 2.362693e-03 2.359076e-03 1.311070e-02 1.229458e-02 9.407984e-03 
    33.5                3.001715e-03 2.634346e-03 9.688325e-04 5.248260e-03 9.908286e-03 7.044419e-07 2.642441e-03 2.183443e-03 2.179672e-03 1.273547e-02 1.194844e-02 9.277179e-03 
    34.5                3.057452e-03 2.635023e-03 9.443907e-04 5.312989e-03 9.965929e-03 6.210707e-07 2.711378e-03 2.095860e-03 2.093237e-03 1.281695e-02 1.201617e-02 9.356776e-03 
    35.5                2.941175e-03 2.543462e-03 9.361056e-04 4.969882e-03 9.172837e-03 5.333168e-07 2.611502e-03 1.957750e-03 1.955466e-03 1.190931e-02 1.118938e-02 8.917705e-03 
    36.5                2.848209e-03 2.595599e-03 9.520416e-04 4.896863e-03 8.942443e-03 6.141081e-07 2.623068e-03 1.829184e-03 1.826819e-03 1.168444e-02 1.096039e-02 8.847624e-03 
    37.5                2.968733e-03 2.673433e-03 9.715744e-04 4.990281e-03 9.029857e-03 5.902461e-07 2.706059e-03 1.772334e-03 1.770445e-03 1.184314e-02 1.116006e-02 9.093953e-03 
    38.5                2.882871e-03 2.870007e-03 1.052371e-03 4.977510e-03 8.819402e-03 6.105440e-07 2.782530e-03 1.700405e-03 1.698064e-03 1.172927e-02 1.104660e-02 9.231139e-03 
    39.5                3.110213e-03 2.762937e-03 1.129547e-03 5.021963e-03 8.745214e-03 6.877040e-07 2.877354e-03 1.649522e-03 1.647173e-03 1.176728e-02 1.106609e-02 9.425952e-03 
    40.5                3.055425e-03 2.849628e-03 1.114200e-03 4.950582e-03 8.573611e-03 6.248583e-07 2.860782e-03 1.582318e-03 1.580405e-03 1.156135e-02 1.094358e-02 9.389580e-03 
    41.5                3.090342e-03 3.151336e-03 1.304024e-03 5.057035e-03 8.617147e-03 7.459493e-07 2.999528e-03 1.565209e-03 1.560871e-03 1.182632e-02 1.120554e-02 9.883369e-03 
    42.5                3.371232e-03 3.059980e-03 1.479032e-03 5.043693e-03 8.403460e-03 8.868930e-07 3.082367e-03 1.559105e-03 1.552989e-03 1.178340e-02 1.117970e-02 1.016458e-02 
    43.5                3.277745e-03 3.237856e-03 1.530339e-03 4.888371e-03 8.013829e-03 9.687822e-07 3.040399e-03 1.512710e-03 1.505849e-03 1.139645e-02 1.093982e-02 1.014714e-02 
    44.5                3.438052e-03 3.560872e-03 1.753065e-03 5.239075e-03 8.339806e-03 1.372041e-06 3.350222e-03 1.563825e-03 1.557018e-03 1.212241e-02 1.155443e-02 1.098536e-02 
    45.5                3.786571e-03 3.544208e-03 1.828643e-03 5.368732e-03 8.359228e-03 1.427818e-06 3.494191e-03 1.567320e-03 1.561521e-03 1.230308e-02 1.181937e-02 1.140452e-02 
    46.5                3.704178e-03 3.642425e-03 1.946975e-03 5.266262e-03 8.160538e-03 1.407743e-06 3.468228e-03 1.531796e-03 1.523601e-03 1.215507e-02 1.169301e-02 1.143207e-02 
    47.5                3.857338e-03 3.901548e-03 2.287238e-03 5.240959e-03 8.133227e-03 2.184702e-06 3.489872e-03 1.560634e-03 1.545879e-03 1.239736e-02 1.201827e-02 1.200372e-02 
    48.5                3.973167e-03 4.291675e-03 2.760162e-03 5.360363e-03 8.125262e-03 3.777960e-06 3.663214e-03 1.618939e-03 1.598076e-03 1.290592e-02 1.244474e-02 1.286826e-02 
    49.5                4.416588e-03 4.728933e-03 3.203944e-03 5.654870e-03 8.399379e-03 5.367618e-06 3.943868e-03 1.691463e-03 1.666244e-03 1.374916e-02 1.337705e-02 1.414187e-02 
    50.5                4.717878e-03 5.464031e-03 3.963924e-03 5.965256e-03 8.742340e-03 7.673430e-06 4.254784e-03 1.794541e-03 1.759055e-03 1.492419e-02 1.451552e-02 1.580101e-02 
    51.5                5.424567e-03 6.054201e-03 5.191401e-03 6.090513e-03 9.154214e-03 9.944255e-06 4.417388e-03 1.900042e-03 1.843455e-03 1.636375e-02 1.593108e-02 1.787510e-02 
    52.5                6.150954e-03 6.082403e-03 5.992499e-03 5.884780e-03 9.104513e-03 1.112120e-05 4.318710e-03 1.961471e-03 1.889880e-03 1.680950e-02 1.657171e-02 1.892071e-02 
    53.5                6.281026e-03 6.178205e-03 6.412847e-03 5.552942e-03 8.813502e-03 1.112735e-05 4.111491e-03 1.986653e-03 1.907049e-03 1.663808e-02 1.659054e-02 1.916256e-02 
    54.5                6.413051e-03 5.822727e-03 6.543003e-03 5.254095e-03 8.411487e-03 1.121170e-05 3.928255e-03 1.973687e-03 1.892427e-03 1.618463e-02 1.614403e-02 1.886076e-02 
    55.5                6.353607e-03 5.877768e-03 6.521485e-03 5.009269e-03 8.064772e-03 1.131653e-05 3.765536e-03 1.949342e-03 1.868609e-03 1.569796e-02 1.590760e-02 1.863800e-02 
    56.5                6.224447e-03 5.607689e-03 6.513164e-03 4.811377e-03 7.707391e-03 1.144857e-05 3.656433e-03 1.909037e-03 1.829715e-03 1.525837e-02 1.534715e-02 1.816903e-02 
    57.5                5.995077e-03 5.134864e-03 6.213384e-03 4.381975e-03 7.033770e-03 1.140202e-05 3.353688e-03 1.816182e-03 1.741499e-03 1.415083e-02 1.430404e-02 1.705694e-02 
    58.5                5.528781e-03 4.938424e-03 6.052273e-03 3.913331e-03 6.402237e-03 1.137997e-05 3.018426e-03 1.686863e-03 1.613577e-03 1.315822e-02 1.332395e-02 1.603354e-02 
    59.5                5.241428e-03 4.723345e-03 5.919413e-03 3.585421e-03 5.931772e-03 1.124907e-05 2.790621e-03 1.552719e-03 1.481089e-03 1.242208e-02 1.259966e-02 1.526890e-02 
    60.5                5.061062e-03 4.299420e-03 5.689112e-03 3.150958e-03 5.424200e-03 1.021493e-05 2.457120e-03 1.390860e-03 1.320915e-03 1.146858e-02 1.174364e-02 1.427122e-02 
    61.5                4.594966e-03 3.762379e-03 5.373202e-03 2.629237e-03 4.726782e-03 9.624778e-06 2.069243e-03 1.222906e-03 1.155774e-03 1.023850e-02 1.043595e-02 1.283261e-02 
    62.5                4.250061e-03 3.083024e-03 4.728102e-03 2.101753e-03 3.969554e-03 8.269241e-06 1.655696e-03 1.045702e-03 9.863867e-04 8.680493e-03 9.038327e-03 1.109787e-02 
    63.5                3.484408e-03 2.519080e-03 3.957310e-03 1.638792e-03 3.163416e-03 7.096653e-06 1.303097e-03 8.616659e-04 8.123187e-04 7.047026e-03 7.360220e-03 9.090147e-03 
    64.5                2.870472e-03 2.022502e-03 3.282032e-03 1.270753e-03 2.526262e-03 5.973625e-06 1.014291e-03 6.843703e-04 6.436917e-04 5.698360e-03 5.968964e-03 7.403801e-03 
    65.5                2.286856e-03 1.547847e-03 2.675960e-03 9.160567e-04 1.942908e-03 4.795982e-06 7.352813e-04 5.178570e-04 4.844476e-04 4.453445e-03 4.661293e-03 5.820555e-03 
    66.5                1.836447e-03 1.104096e-03 2.091218e-03 6.277008e-04 1.443181e-03 3.656512e-06 5.049830e-04 3.719256e-04 3.455748e-04 3.344776e-03 3.547582e-03 4.432224e-03 
    67.5                1.348507e-03 7.084760e-04 1.487826e-03 3.725261e-04 9.761112e-04 2.370746e-06 2.988976e-04 2.419354e-04 2.230203e-04 2.271929e-03 2.462524e-03 3.067116e-03 
    68.5                9.079731e-04 3.966857e-04 9.655020e-04 1.937249e-04 6.011955e-04 1.347474e-06 1.548426e-04 1.394330e-04 1.269811e-04 1.402534e-03 1.551352e-03 1.928926e-03 
    69.5                5.553066e-04 1.748821e-04 5.382114e-04 8.967921e-05 3.219080e-04 6.978524e-07 7.175874e-05 6.815844e-05 6.124950e-05 7.524732e-04 8.584272e-04 1.062914e-03 
    70.5                2.782409e-04 4.429751e-05 2.303313e-04 3.247348e-05 1.332100e-04 2.945182e-07 2.599174e-05 2.596645e-05 2.304090e-05 3.118169e-04 3.736458e-04 4.590526e-04 
    71.5                1.009690e-04 5.779394e-06 6.232420e-05 8.747742e-06 3.600442e-05 1.003758e-07 7.050665e-06 6.589775e-06 5.824394e-06 8.396827e-05 1.186209e-04 1.398719e-04 
    72.5                1.771846e-05 1.235593e-07 8.700044e-06 1.039707e-06 4.853149e-06 1.792862e-08 8.578785e-07 9.289886e-07 8.263623e-07 1.136405e-05 1.920461e-05 2.191122e-05 
    73.5                1.390063e-06 0.000000e+00 4.463240e-07 3.480909e-08 2.272390e-07 1.779627e-09 3.158151e-08 4.009286e-08 3.494075e-08 5.471711e-07 1.424097e-06 1.518835e-06 
    74.5                0.000000e+00 0.000000e+00 0.000000e+00 0.000000e+00 0.000000e+00 0.000000e+00 0.000000e+00 0.000000e+00 0.000000e+00 0.000000e+00 0.000000e+00 0.000000e+00 
    75.5                0.000000e+00 0.000000e+00 0.000000e+00 0.000000e+00 0.000000e+00 0.000000e+00 0.000000e+00 0.000000e+00 0.000000e+00 0.000000e+00 0.000000e+00 0.000000e+00 
    76.5                0.000000e+00 0.000000e+00 0.000000e+00 0.000000e+00 0.000000e+00 0.000000e+00 0.000000e+00 0.000000e+00 0.000000e+00 0.000000e+00 0.000000e+00 0.000000e+00 
    77.5                0.000000e+00 0.000000e+00 0.000000e+00 0.000000e+00 0.000000e+00 0.000000e+00 0.000000e+00 0.000000e+00 0.000000e+00 0.000000e+00 0.000000e+00 0.000000e+00 
    78.5                0.000000e+00 0.000000e+00 0.000000e+00 0.000000e+00 0.000000e+00 0.000000e+00 0.000000e+00 0.000000e+00 0.000000e+00 0.000000e+00 0.000000e+00 0.000000e+00 
    79.5                0.000000e+00 0.000000e+00 0.000000e+00 0.000000e+00 0.000000e+00 0.000000e+00 0.000000e+00 0.000000e+00 0.000000e+00 0.000000e+00 0.000000e+00 0.000000e+00 


