# 80 rows of flux data
# 12 columns of flux data
# 
# total cross-sectional flux  1.025398e+00 /m^2/yr
#
#                             +x ram      -x wake      +y port -y starboard    +z zenith     -z nadir        Earth          Sun     anti-Sun      rot (x)      rot (y)      rot (z) 
# average speed (km/s)         38.08        36.79        37.03        37.78        31.65        20.56        37.18        27.83        27.83        33.75        33.75        37.37 
# total flux (#/m2/yr)  2.121069e-01 2.528673e-01 2.557820e-01 2.083346e-01 6.320483e-01 6.169835e-05 2.348658e-01 1.664872e-01 1.665562e-01 8.498721e-01 8.497011e-01 7.297020e-01 
# velocity (km/s)
     0.5                0.000000e+00 0.000000e+00 0.000000e+00 0.000000e+00 0.000000e+00 0.000000e+00 0.000000e+00 0.000000e+00 0.000000e+00 0.000000e+00 0.000000e+00 0.000000e+00 
     1.5                0.000000e+00 0.000000e+00 0.000000e+00 0.000000e+00 0.000000e+00 0.000000e+00 0.000000e+00 0.000000e+00 0.000000e+00 0.000000e+00 0.000000e+00 0.000000e+00 
     2.5                1.191277e-04 3.221373e-05 9.033642e-05 8.893677e-05 1.553472e-04 5.536394e-08 9.522494e-05 8.388942e-05 8.421845e-05 2.615132e-04 2.410679e-04 2.600976e-04 
     3.5                4.731530e-04 3.669519e-04 4.455956e-04 4.528792e-04 7.498668e-04 4.462240e-07 4.835976e-04 4.404515e-04 4.439142e-04 1.289183e-03 1.250100e-03 1.364926e-03 
     4.5                8.449275e-04 9.578300e-04 9.148791e-04 9.335893e-04 1.635866e-03 1.077216e-06 1.000527e-03 9.735979e-04 9.783306e-04 2.729471e-03 2.704706e-03 2.867506e-03 
     5.5                1.255227e-03 1.613686e-03 1.437170e-03 1.431706e-03 2.747429e-03 1.685682e-06 1.543730e-03 1.604512e-03 1.608018e-03 4.399868e-03 4.411440e-03 4.506262e-03 
     6.5                1.617803e-03 2.273874e-03 1.969090e-03 1.894954e-03 4.123880e-03 2.156142e-06 2.062374e-03 2.235346e-03 2.236093e-03 6.267415e-03 6.296788e-03 6.090460e-03 
     7.5                1.976645e-03 2.831674e-03 2.464758e-03 2.299404e-03 5.607261e-03 2.444840e-06 2.526601e-03 2.813228e-03 2.811957e-03 8.143664e-03 8.190178e-03 7.518374e-03 
     8.5                2.316545e-03 3.339168e-03 2.919892e-03 2.662468e-03 7.069617e-03 2.701245e-06 2.947996e-03 3.351832e-03 3.350216e-03 9.955016e-03 1.001204e-02 8.827203e-03 
     9.5                2.561282e-03 3.756650e-03 3.321203e-03 2.952697e-03 8.486939e-03 2.846854e-06 3.294567e-03 3.820532e-03 3.819806e-03 1.162904e-02 1.166612e-02 9.889903e-03 
    10.5                2.866982e-03 4.080467e-03 3.684619e-03 3.188900e-03 9.891886e-03 2.885046e-06 3.586130e-03 4.267272e-03 4.267811e-03 1.322345e-02 1.328469e-02 1.085486e-02 
    11.5                3.095422e-03 4.442121e-03 4.059440e-03 3.433620e-03 1.154336e-02 2.906222e-06 3.895539e-03 4.723821e-03 4.725259e-03 1.506387e-02 1.509130e-02 1.180485e-02 
    12.5                3.269365e-03 4.715953e-03 4.336604e-03 3.602917e-03 1.280101e-02 2.948666e-06 4.114916e-03 5.046573e-03 5.048672e-03 1.641762e-02 1.645860e-02 1.250824e-02 
    13.5                3.301623e-03 4.881718e-03 4.476669e-03 3.636507e-03 1.390120e-02 2.884896e-06 4.191084e-03 5.179220e-03 5.181698e-03 1.750728e-02 1.755041e-02 1.279901e-02 
    14.5                3.426491e-03 4.785823e-03 4.545329e-03 3.631661e-03 1.451966e-02 2.802044e-06 4.209552e-03 5.234520e-03 5.237402e-03 1.808593e-02 1.810939e-02 1.287137e-02 
    15.5                3.486073e-03 4.939033e-03 4.721325e-03 3.689149e-03 1.569596e-02 2.642810e-06 4.314385e-03 5.346492e-03 5.349305e-03 1.924379e-02 1.925480e-02 1.322196e-02 
    16.5                3.535156e-03 4.893510e-03 4.737693e-03 3.655486e-03 1.601049e-02 2.477111e-06 4.292613e-03 5.357939e-03 5.360336e-03 1.949382e-02 1.951192e-02 1.321190e-02 
    17.5                3.549614e-03 4.906251e-03 4.786468e-03 3.653443e-03 1.648011e-02 2.336836e-06 4.309866e-03 5.322159e-03 5.324874e-03 1.991352e-02 1.992249e-02 1.326923e-02 
    18.5                3.610829e-03 4.878975e-03 4.836124e-03 3.647852e-03 1.698103e-02 2.302421e-06 4.324633e-03 5.287678e-03 5.290562e-03 2.035783e-02 2.036440e-02 1.333074e-02 
    19.5                3.593225e-03 4.836647e-03 4.848735e-03 3.632588e-03 1.711355e-02 2.155194e-06 4.316623e-03 5.175080e-03 5.177859e-03 2.043059e-02 2.039275e-02 1.328293e-02 
    20.5                3.534686e-03 4.762446e-03 4.750306e-03 3.520996e-03 1.692336e-02 1.954986e-06 4.198853e-03 4.986314e-03 4.988966e-03 2.008784e-02 2.010400e-02 1.301110e-02 
    21.5                3.581210e-03 4.610450e-03 4.743553e-03 3.469708e-03 1.705315e-02 1.738902e-06 4.153243e-03 4.842857e-03 4.845123e-03 2.013967e-02 2.011769e-02 1.288544e-02 
    22.5                3.508102e-03 4.668757e-03 4.778846e-03 3.462857e-03 1.733423e-02 1.545568e-06 4.159892e-03 4.717423e-03 4.719337e-03 2.036113e-02 2.032388e-02 1.289585e-02 
    23.5                3.365870e-03 4.451794e-03 4.520907e-03 3.270503e-03 1.641819e-02 1.416153e-06 3.931872e-03 4.416951e-03 4.419313e-03 1.925397e-02 1.925754e-02 1.226043e-02 
    24.5                3.285318e-03 4.197838e-03 4.355239e-03 3.145676e-03 1.574442e-02 1.324252e-06 3.781104e-03 4.154433e-03 4.156270e-03 1.844556e-02 1.842455e-02 1.176724e-02 
    25.5                3.199584e-03 4.103747e-03 4.243368e-03 3.053092e-03 1.538722e-02 1.213098e-06 3.675997e-03 3.927639e-03 3.929648e-03 1.798031e-02 1.796690e-02 1.146533e-02 
    26.5                3.170978e-03 3.929580e-03 4.142321e-03 2.987508e-03 1.482649e-02 1.082349e-06 3.589767e-03 3.719114e-03 3.720761e-03 1.734673e-02 1.731184e-02 1.117686e-02 
    27.5                3.040581e-03 3.864725e-03 4.028503e-03 2.895940e-03 1.424450e-02 8.992862e-07 3.477267e-03 3.510227e-03 3.511434e-03 1.665866e-02 1.663157e-02 1.086248e-02 
    28.5                2.974025e-03 3.683537e-03 3.877481e-03 2.778041e-03 1.363070e-02 7.378937e-07 3.336131e-03 3.247438e-03 3.249013e-03 1.592029e-02 1.590562e-02 1.045647e-02 
    29.5                2.759456e-03 3.544264e-03 3.679989e-03 2.632988e-03 1.290598e-02 6.290284e-07 3.163038e-03 2.943256e-03 2.944362e-03 1.505482e-02 1.503175e-02 9.907017e-03 
    30.5                2.687295e-03 3.282722e-03 3.480463e-03 2.471743e-03 1.230672e-02 5.150149e-07 2.977845e-03 2.725111e-03 2.725984e-03 1.429928e-02 1.428728e-02 9.363787e-03 
    31.5                2.677519e-03 3.173055e-03 3.427402e-03 2.438907e-03 1.193097e-02 4.339421e-07 2.931344e-03 2.560377e-03 2.561336e-03 1.387151e-02 1.385017e-02 9.202730e-03 
    32.5                2.570861e-03 3.086273e-03 3.287152e-03 2.356983e-03 1.120550e-02 3.876323e-07 2.821366e-03 2.349006e-03 2.349682e-03 1.308496e-02 1.306611e-02 8.876400e-03 
    33.5                2.628965e-03 2.994939e-03 3.260286e-03 2.355482e-03 1.082841e-02 3.347097e-07 2.806341e-03 2.170026e-03 2.170945e-03 1.270861e-02 1.268856e-02 8.826270e-03 
    34.5                2.630239e-03 3.048630e-03 3.309473e-03 2.386708e-03 1.090497e-02 2.458704e-07 2.842260e-03 2.084089e-03 2.084545e-03 1.279088e-02 1.276598e-02 8.931271e-03 
    35.5                2.536009e-03 2.934697e-03 3.156242e-03 2.303468e-03 1.004212e-02 1.855464e-07 2.724157e-03 1.945967e-03 1.946330e-03 1.188393e-02 1.186598e-02 8.584235e-03 
    36.5                2.589124e-03 2.838851e-03 3.146340e-03 2.306583e-03 9.795544e-03 1.177644e-07 2.718565e-03 1.816233e-03 1.816714e-03 1.165019e-02 1.161235e-02 8.547112e-03 
    37.5                2.665524e-03 2.958779e-03 3.219756e-03 2.366545e-03 9.898592e-03 7.924993e-08 2.784744e-03 1.758950e-03 1.759214e-03 1.180665e-02 1.181283e-02 8.808331e-03 
    38.5                2.862338e-03 2.874903e-03 3.282521e-03 2.446780e-03 9.671254e-03 6.906372e-08 2.856683e-03 1.688359e-03 1.688870e-03 1.169334e-02 1.166703e-02 9.002339e-03 
    39.5                2.755493e-03 3.100965e-03 3.366452e-03 2.538174e-03 9.591698e-03 6.269269e-08 2.946580e-03 1.638197e-03 1.638349e-03 1.172185e-02 1.166719e-02 9.233228e-03 
    40.5                2.840715e-03 3.046398e-03 3.335989e-03 2.519696e-03 9.407376e-03 5.326229e-08 2.920341e-03 1.570434e-03 1.570711e-03 1.152326e-02 1.152883e-02 9.226819e-03 
    41.5                3.137698e-03 3.080785e-03 3.515976e-03 2.697275e-03 9.437076e-03 5.569556e-08 3.101038e-03 1.551607e-03 1.552044e-03 1.177647e-02 1.175336e-02 9.762036e-03 
    42.5                3.044537e-03 3.354825e-03 3.624342e-03 2.826376e-03 9.189611e-03 6.324730e-08 3.221403e-03 1.544530e-03 1.544728e-03 1.172976e-02 1.167114e-02 1.009373e-02 
    43.5                3.221909e-03 3.261439e-03 3.569366e-03 2.811502e-03 8.754983e-03 5.879851e-08 3.189313e-03 1.497165e-03 1.497319e-03 1.133690e-02 1.137424e-02 1.010285e-02 
    44.5                3.543018e-03 3.415131e-03 3.890391e-03 3.097585e-03 9.118911e-03 4.992138e-08 3.492508e-03 1.543987e-03 1.544266e-03 1.202834e-02 1.197679e-02 1.095558e-02 
    45.5                3.524164e-03 3.765038e-03 4.011567e-03 3.218731e-03 9.155624e-03 4.647518e-08 3.617300e-03 1.546890e-03 1.547268e-03 1.220801e-02 1.222807e-02 1.140131e-02 
    46.5                3.617118e-03 3.687325e-03 4.035443e-03 3.263005e-03 8.905092e-03 1.021444e-07 3.651678e-03 1.512226e-03 1.512472e-03 1.206667e-02 1.205366e-02 1.146958e-02 
    47.5                3.858126e-03 3.828608e-03 4.180333e-03 3.434512e-03 8.834917e-03 1.092439e-07 3.821611e-03 1.533882e-03 1.534276e-03 1.226302e-02 1.229339e-02 1.201836e-02 
    48.5                4.232226e-03 3.925099e-03 4.454763e-03 3.711942e-03 8.794043e-03 2.095297e-07 4.098763e-03 1.581626e-03 1.582454e-03 1.265636e-02 1.260977e-02 1.282262e-02 
    49.5                4.643858e-03 4.346922e-03 4.819812e-03 4.045422e-03 9.081943e-03 1.784963e-07 4.447788e-03 1.640828e-03 1.641194e-03 1.338558e-02 1.345305e-02 1.401951e-02 
    50.5                5.324456e-03 4.626938e-03 5.346419e-03 4.538330e-03 9.410275e-03 1.735541e-07 4.957120e-03 1.724646e-03 1.724993e-03 1.440118e-02 1.443550e-02 1.557795e-02 
    51.5                5.872959e-03 5.284596e-03 6.037728e-03 5.210673e-03 9.710361e-03 2.448912e-07 5.647084e-03 1.808483e-03 1.809248e-03 1.571048e-02 1.560867e-02 1.760068e-02 
    52.5                5.876098e-03 5.957493e-03 6.341501e-03 5.551773e-03 9.509245e-03 5.411251e-07 5.983997e-03 1.856498e-03 1.857166e-03 1.611486e-02 1.603227e-02 1.863349e-02 
    53.5                5.958488e-03 6.077683e-03 6.402047e-03 5.651027e-03 9.076029e-03 5.633855e-07 6.066946e-03 1.873650e-03 1.874773e-03 1.596791e-02 1.592362e-02 1.891842e-02 
    54.5                5.608293e-03 6.188079e-03 6.305775e-03 5.595856e-03 8.583903e-03 4.658590e-07 5.991313e-03 1.854919e-03 1.855518e-03 1.551249e-02 1.539629e-02 1.862021e-02 
    55.5                5.660706e-03 6.113447e-03 6.156566e-03 5.468908e-03 8.185948e-03 3.238250e-07 5.846960e-03 1.827753e-03 1.828163e-03 1.502050e-02 1.510968e-02 1.837213e-02 
    56.5                5.394729e-03 5.984292e-03 6.034391e-03 5.378550e-03 7.775167e-03 2.720201e-07 5.739001e-03 1.785650e-03 1.786140e-03 1.456518e-02 1.452346e-02 1.789723e-02 
    57.5                4.926195e-03 5.757103e-03 5.614926e-03 5.026729e-03 7.050409e-03 3.274536e-07 5.355425e-03 1.696123e-03 1.696560e-03 1.345610e-02 1.347228e-02 1.675629e-02 
    58.5                4.727791e-03 5.298985e-03 5.256789e-03 4.728760e-03 6.372035e-03 3.993165e-07 5.027188e-03 1.570351e-03 1.570837e-03 1.246812e-02 1.247910e-02 1.571700e-02 
    59.5                4.509008e-03 5.010761e-03 5.002599e-03 4.520201e-03 5.871240e-03 3.256475e-07 4.796132e-03 1.441791e-03 1.442351e-03 1.174647e-02 1.173662e-02 1.495144e-02 
    60.5                4.099785e-03 4.837016e-03 4.665090e-03 4.232196e-03 5.308095e-03 2.503544e-07 4.483875e-03 1.288013e-03 1.288471e-03 1.086932e-02 1.088646e-02 1.400584e-02 
    61.5                3.575004e-03 4.380236e-03 4.209325e-03 3.842753e-03 4.539637e-03 2.426985e-07 4.059132e-03 1.128318e-03 1.128804e-03 9.677421e-03 9.589072e-03 1.257878e-02 
    62.5                2.927229e-03 4.043772e-03 3.597804e-03 3.293268e-03 3.756961e-03 2.873543e-07 3.474251e-03 9.636371e-04 9.638163e-04 8.214757e-03 8.261725e-03 1.088449e-02 
    63.5                2.387035e-03 3.303166e-03 2.935095e-03 2.701854e-03 2.964036e-03 2.195909e-07 2.845520e-03 7.922653e-04 7.927508e-04 6.649780e-03 6.692883e-03 8.895344e-03 
    64.5                1.911197e-03 2.720256e-03 2.380830e-03 2.192796e-03 2.343619e-03 1.858138e-07 2.306823e-03 6.279423e-04 6.281209e-04 5.361214e-03 5.403558e-03 7.230721e-03 
    65.5                1.461176e-03 2.161668e-03 1.874825e-03 1.739866e-03 1.765191e-03 2.380643e-07 1.826627e-03 4.744464e-04 4.747244e-04 4.189151e-03 4.191050e-03 5.685591e-03 
    66.5                1.040223e-03 1.735181e-03 1.419707e-03 1.330908e-03 1.281972e-03 2.666874e-07 1.394661e-03 3.405618e-04 3.408462e-04 3.156400e-03 3.172843e-03 4.339725e-03 
    67.5                6.662785e-04 1.274001e-03 9.784065e-04 9.236468e-04 8.417277e-04 2.010462e-07 9.661888e-04 2.217225e-04 2.219648e-04 2.159999e-03 2.190270e-03 3.018123e-03 
    68.5                3.755262e-04 8.558659e-04 6.166625e-04 5.859985e-04 4.942795e-04 1.516960e-07 6.114831e-04 1.277974e-04 1.279300e-04 1.347694e-03 1.370315e-03 1.912308e-03 
    69.5                1.679329e-04 5.232441e-04 3.350231e-04 3.253979e-04 2.486460e-04 1.429817e-07 3.387356e-04 6.245945e-05 6.260474e-05 7.306095e-04 7.554356e-04 1.060904e-03 
    70.5                4.420302e-05 2.633958e-04 1.391252e-04 1.430725e-04 9.484010e-05 1.255151e-07 1.483296e-04 2.384411e-05 2.398436e-05 3.081565e-04 3.295138e-04 4.633806e-04 
    71.5                6.387287e-06 9.607921e-05 3.619508e-05 4.139534e-05 2.376628e-05 6.913089e-08 4.283895e-05 6.113067e-06 6.198205e-06 8.426683e-05 1.066871e-04 1.413971e-04 
    72.5                1.443393e-07 1.753247e-05 4.438058e-06 6.791098e-06 2.773687e-06 2.209214e-08 6.993366e-06 8.798583e-07 9.113855e-07 1.199437e-05 1.802213e-05 2.281404e-05 
    73.5                0.000000e+00 1.491095e-06 1.915394e-07 3.919907e-07 9.764372e-08 3.618953e-09 4.057739e-07 3.991065e-08 4.237867e-08 6.056145e-07 1.496641e-06 1.657625e-06 
    74.5                0.000000e+00 0.000000e+00 0.000000e+00 0.000000e+00 0.000000e+00 0.000000e+00 0.000000e+00 0.000000e+00 0.000000e+00 0.000000e+00 0.000000e+00 0.000000e+00 
    75.5                0.000000e+00 0.000000e+00 0.000000e+00 0.000000e+00 0.000000e+00 0.000000e+00 0.000000e+00 0.000000e+00 0.000000e+00 0.000000e+00 0.000000e+00 0.000000e+00 
    76.5                0.000000e+00 0.000000e+00 0.000000e+00 0.000000e+00 0.000000e+00 0.000000e+00 0.000000e+00 0.000000e+00 0.000000e+00 0.000000e+00 0.000000e+00 0.000000e+00 
    77.5                0.000000e+00 0.000000e+00 0.000000e+00 0.000000e+00 0.000000e+00 0.000000e+00 0.000000e+00 0.000000e+00 0.000000e+00 0.000000e+00 0.000000e+00 0.000000e+00 
    78.5                0.000000e+00 0.000000e+00 0.000000e+00 0.000000e+00 0.000000e+00 0.000000e+00 0.000000e+00 0.000000e+00 0.000000e+00 0.000000e+00 0.000000e+00 0.000000e+00 
    79.5                0.000000e+00 0.000000e+00 0.000000e+00 0.000000e+00 0.000000e+00 0.000000e+00 0.000000e+00 0.000000e+00 0.000000e+00 0.000000e+00 0.000000e+00 0.000000e+00 


