# 80 rows of flux data
# 12 columns of flux data
# 
# total cross-sectional flux  2.153729e+00 /m^2/yr
#
#                             +x ram      -x wake      +y port -y starboard    +z zenith     -z nadir        Earth          Sun     anti-Sun      rot (x)      rot (y)      rot (z) 
# average speed (km/s)         24.67        23.83        21.36        19.18        24.27        23.68        23.53        24.68        24.68        23.64        24.27        23.70 
# total flux (#/m2/yr)  7.163839e-01 6.110962e-01 2.729182e-01 1.737030e-01 1.284216e+00 4.940660e-04 4.885398e-03 9.478034e-01 9.342854e-01 1.444844e+00 2.058916e+00 1.484254e+00 
# velocity (km/s)
     0.5                0.000000e+00 0.000000e+00 0.000000e+00 0.000000e+00 0.000000e+00 0.000000e+00 0.000000e+00 0.000000e+00 0.000000e+00 0.000000e+00 0.000000e+00 0.000000e+00 
     1.5                0.000000e+00 0.000000e+00 0.000000e+00 0.000000e+00 0.000000e+00 0.000000e+00 0.000000e+00 0.000000e+00 0.000000e+00 0.000000e+00 0.000000e+00 0.000000e+00 
     2.5                0.000000e+00 5.078325e-06 3.805333e-07 3.605901e-07 2.440022e-06 1.366725e-09 1.275415e-08 2.162800e-06 1.271036e-07 2.737187e-06 5.874783e-06 5.195390e-06 
     3.5                3.143710e-06 1.176533e-04 2.417977e-05 1.915335e-05 1.034753e-04 4.223170e-08 4.076822e-07 5.816623e-05 2.089982e-05 1.215545e-04 1.770908e-04 1.342391e-04 
     4.5                1.192547e-04 5.409752e-04 1.673960e-04 1.333071e-04 6.080613e-04 2.503220e-07 2.236135e-06 2.962435e-04 1.671150e-04 7.356438e-04 9.997730e-04 7.715679e-04 
     5.5                5.662560e-04 1.469536e-03 6.281312e-04 5.058538e-04 2.050436e-03 7.713873e-07 7.183796e-06 9.664783e-04 7.115925e-04 2.540047e-03 3.224463e-03 2.509125e-03 
     6.5                1.898260e-03 2.757657e-03 1.473930e-03 1.191940e-03 4.584600e-03 1.822553e-06 1.657486e-05 2.182836e-03 1.833672e-03 5.741978e-03 7.286039e-03 5.785988e-03 
     7.5                3.551534e-03 4.898344e-03 2.751342e-03 2.254996e-03 8.169761e-03 3.445189e-06 3.162009e-05 3.956677e-03 3.629147e-03 1.041284e-02 1.310388e-02 1.061553e-02 
     8.5                6.012758e-03 7.285929e-03 4.367061e-03 3.546107e-03 1.311572e-02 5.372919e-06 4.958688e-05 6.345869e-03 6.204348e-03 1.661597e-02 2.082429e-02 1.669381e-02 
     9.5                9.187266e-03 9.281340e-03 6.177621e-03 5.029303e-03 1.829999e-02 7.527715e-06 7.053205e-05 9.282836e-03 9.285681e-03 2.327869e-02 2.899203e-02 2.335128e-02 
    10.5                1.243140e-02 1.129185e-02 8.029574e-03 6.629033e-03 2.286968e-02 1.001053e-05 9.534217e-05 1.271643e-02 1.269414e-02 2.954342e-02 3.673954e-02 3.019921e-02 
    11.5                1.467644e-02 1.295819e-02 9.557282e-03 7.936915e-03 2.693174e-02 1.178536e-05 1.160525e-04 1.612717e-02 1.603461e-02 3.502763e-02 4.303137e-02 3.555437e-02 
    12.5                1.685284e-02 1.421891e-02 1.055921e-02 8.791137e-03 2.989455e-02 1.353294e-05 1.357522e-04 1.917285e-02 1.904579e-02 3.895811e-02 4.808228e-02 3.981226e-02 
    13.5                1.813184e-02 1.614249e-02 1.133943e-02 9.367464e-03 3.286677e-02 1.486188e-05 1.511613e-04 2.212390e-02 2.196004e-02 4.252640e-02 5.293632e-02 4.358806e-02 
    14.5                1.977837e-02 1.781270e-02 1.192950e-02 9.673927e-03 3.634287e-02 1.602184e-05 1.644438e-04 2.526017e-02 2.503822e-02 4.619008e-02 5.829752e-02 4.711944e-02 
    15.5                2.148476e-02 1.935293e-02 1.221380e-02 9.667384e-03 3.952730e-02 1.707396e-05 1.753714e-04 2.823960e-02 2.797139e-02 4.919285e-02 6.337373e-02 5.016875e-02 
    16.5                2.331135e-02 2.073591e-02 1.247441e-02 9.609508e-03 4.257609e-02 1.801854e-05 1.845374e-04 3.104743e-02 3.073016e-02 5.202442e-02 6.829362e-02 5.319271e-02 
    17.5                2.464032e-02 2.207100e-02 1.247953e-02 9.331837e-03 4.509243e-02 1.868651e-05 1.912022e-04 3.355722e-02 3.319695e-02 5.408965e-02 7.238006e-02 5.537656e-02 
    18.5                2.584340e-02 2.303958e-02 1.233820e-02 8.921485e-03 4.737755e-02 1.912065e-05 1.954021e-04 3.576646e-02 3.537699e-02 5.575841e-02 7.589370e-02 5.697956e-02 
    19.5                2.700424e-02 2.376323e-02 1.221416e-02 8.587460e-03 4.909083e-02 1.957185e-05 1.997347e-04 3.754753e-02 3.712985e-02 5.700765e-02 7.872599e-02 5.842765e-02 
    20.5                2.761109e-02 2.442367e-02 1.189165e-02 8.103882e-03 5.023851e-02 1.980666e-05 2.018734e-04 3.878498e-02 3.834072e-02 5.758141e-02 8.062927e-02 5.911974e-02 
    21.5                2.805931e-02 2.542438e-02 1.159213e-02 7.583927e-03 5.169892e-02 1.989982e-05 2.016660e-04 4.013913e-02 3.965216e-02 5.840294e-02 8.291909e-02 5.994982e-02 
    22.5                2.894519e-02 2.604380e-02 1.145113e-02 7.280951e-03 5.335409e-02 2.025535e-05 2.052682e-04 4.153827e-02 4.101340e-02 5.967969e-02 8.540978e-02 6.113465e-02 
    23.5                2.970792e-02 2.628044e-02 1.109791e-02 6.762586e-03 5.421354e-02 2.031426e-05 2.042027e-04 4.234170e-02 4.178719e-02 5.994643e-02 8.687052e-02 6.155230e-02 
    24.5                2.986888e-02 2.640969e-02 1.065668e-02 6.235388e-03 5.446850e-02 2.022855e-05 2.023734e-04 4.259025e-02 4.200851e-02 5.965987e-02 8.730160e-02 6.131671e-02 
    25.5                2.991534e-02 2.628762e-02 1.013104e-02 5.654076e-03 5.446480e-02 1.997075e-05 1.987238e-04 4.253852e-02 4.193230e-02 5.907444e-02 8.723767e-02 6.070163e-02 
    26.5                2.978039e-02 2.562421e-02 9.535119e-03 5.082942e-03 5.372165e-02 1.953430e-05 1.936530e-04 4.190766e-02 4.129385e-02 5.780940e-02 8.602403e-02 5.939673e-02 
    27.5                2.916414e-02 2.497277e-02 8.890760e-03 4.520876e-03 5.231292e-02 1.902584e-05 1.876766e-04 4.080322e-02 4.019219e-02 5.589882e-02 8.391292e-02 5.765620e-02 
    28.5                2.822403e-02 2.412910e-02 8.258854e-03 3.997742e-03 5.073831e-02 1.826864e-05 1.794208e-04 3.940896e-02 3.880222e-02 5.388138e-02 8.126265e-02 5.545220e-02 
    29.5                2.734327e-02 2.300709e-02 7.609297e-03 3.490405e-03 4.876044e-02 1.749740e-05 1.711494e-04 3.776164e-02 3.716458e-02 5.146868e-02 7.812204e-02 5.304912e-02 
    30.5                2.609048e-02 2.175727e-02 6.923966e-03 2.993704e-03 4.632068e-02 1.656813e-05 1.614542e-04 3.573406e-02 3.515855e-02 4.862826e-02 7.422841e-02 5.015863e-02 
    31.5                2.469828e-02 2.029514e-02 6.212233e-03 2.499094e-03 4.356191e-02 1.552947e-05 1.503349e-04 3.343557e-02 3.288543e-02 4.547953e-02 6.980486e-02 4.693688e-02 
    32.5                2.310066e-02 1.860887e-02 5.509334e-03 2.053154e-03 4.040287e-02 1.432610e-05 1.380487e-04 3.081177e-02 3.029798e-02 4.198097e-02 6.472603e-02 4.332720e-02 
    33.5                2.132059e-02 1.671366e-02 4.825149e-03 1.667447e-03 3.680098e-02 1.305639e-05 1.250362e-04 2.788995e-02 2.741915e-02 3.808694e-02 5.898888e-02 3.937442e-02 
    34.5                1.925593e-02 1.482001e-02 4.159743e-03 1.326156e-03 3.294330e-02 1.168900e-05 1.114127e-04 2.480051e-02 2.437790e-02 3.397611e-02 5.282797e-02 3.517240e-02 
    35.5                1.715405e-02 1.293402e-02 3.524102e-03 1.019396e-03 2.905280e-02 1.032867e-05 9.775541e-05 2.171965e-02 2.134579e-02 2.986140e-02 4.661862e-02 3.096252e-02 
    36.5                1.502735e-02 1.110474e-02 2.933667e-03 7.523033e-04 2.524016e-02 8.952229e-06 8.399661e-05 1.870700e-02 1.838196e-02 2.585190e-02 4.049342e-02 2.681372e-02 
    37.5                1.298997e-02 9.330834e-03 2.405362e-03 5.399809e-04 2.154050e-02 7.616081e-06 7.100979e-05 1.582578e-02 1.555106e-02 2.199592e-02 3.457158e-02 2.284607e-02 
    38.5                1.099451e-02 7.583686e-03 1.928523e-03 3.722567e-04 1.793940e-02 6.328916e-06 5.864748e-05 1.305184e-02 1.282621e-02 1.826848e-02 2.878448e-02 1.897513e-02 
    39.5                9.083709e-03 5.894723e-03 1.498522e-03 2.445765e-04 1.443188e-02 5.114727e-06 4.706568e-05 1.040272e-02 1.022436e-02 1.466177e-02 2.318136e-02 1.526859e-02 
    40.5                7.199478e-03 4.356560e-03 1.116114e-03 1.506861e-04 1.109556e-02 3.951814e-06 3.627256e-05 7.924917e-03 7.791637e-03 1.124899e-02 1.785513e-02 1.176054e-02 
    41.5                5.447186e-03 3.073358e-03 7.946359e-04 8.667923e-05 8.127026e-03 2.941192e-06 2.669392e-05 5.759763e-03 5.665083e-03 8.224745e-03 1.312275e-02 8.658627e-03 
    42.5                3.913149e-03 2.051410e-03 5.416022e-04 4.677838e-05 5.674629e-03 2.053152e-06 1.854816e-05 3.981336e-03 3.917651e-03 5.734036e-03 9.175324e-03 6.054552e-03 
    43.5                2.691183e-03 1.228376e-03 3.476335e-04 2.358009e-05 3.712615e-03 1.355500e-06 1.213545e-05 2.579549e-03 2.540715e-03 3.746775e-03 6.016791e-03 3.975268e-03 
    44.5                1.708671e-03 6.386675e-04 2.015677e-04 1.081654e-05 2.183217e-03 8.186571e-07 7.349572e-06 1.512365e-03 1.492378e-03 2.201280e-03 3.571639e-03 2.378295e-03 
    45.5                9.541439e-04 2.646405e-04 1.010337e-04 4.375639e-06 1.105195e-03 4.348986e-07 3.912619e-06 7.664112e-04 7.579359e-04 1.113565e-03 1.832162e-03 1.233657e-03 
    46.5                4.455294e-04 7.758601e-05 4.066197e-05 1.538807e-06 4.467143e-04 1.949716e-07 1.770443e-06 3.159475e-04 3.137292e-04 4.499468e-04 7.647340e-04 5.287398e-04 
    47.5                1.536498e-04 1.514232e-05 1.195864e-05 4.352005e-07 1.313826e-04 6.738091e-08 6.193827e-07 9.662573e-05 9.660753e-05 1.323331e-04 2.369979e-04 1.703078e-04 
    48.5                3.713555e-05 1.355890e-06 2.412169e-06 8.499914e-08 2.647045e-05 1.697565e-08 1.502839e-07 2.064451e-05 2.079936e-05 2.666455e-05 5.131780e-05 3.875316e-05 
    49.5                5.167112e-06 1.187193e-08 2.629801e-07 1.097453e-08 2.856972e-06 2.330160e-09 2.190772e-08 2.523127e-06 2.570216e-06 2.880042e-06 6.345935e-06 5.197457e-06 
    50.5                1.503046e-07 0.000000e+00 5.218891e-09 3.492727e-10 5.488067e-08 1.027121e-10 7.868366e-10 6.480359e-08 6.676759e-08 5.549313e-08 1.646726e-07 1.504699e-07 
    51.5                0.000000e+00 0.000000e+00 0.000000e+00 0.000000e+00 0.000000e+00 0.000000e+00 0.000000e+00 0.000000e+00 0.000000e+00 0.000000e+00 0.000000e+00 0.000000e+00 
    52.5                0.000000e+00 0.000000e+00 0.000000e+00 0.000000e+00 0.000000e+00 0.000000e+00 0.000000e+00 0.000000e+00 0.000000e+00 0.000000e+00 0.000000e+00 0.000000e+00 
    53.5                0.000000e+00 0.000000e+00 0.000000e+00 0.000000e+00 0.000000e+00 0.000000e+00 0.000000e+00 0.000000e+00 0.000000e+00 0.000000e+00 0.000000e+00 0.000000e+00 
    54.5                0.000000e+00 0.000000e+00 0.000000e+00 0.000000e+00 0.000000e+00 0.000000e+00 0.000000e+00 0.000000e+00 0.000000e+00 0.000000e+00 0.000000e+00 0.000000e+00 
    55.5                0.000000e+00 0.000000e+00 0.000000e+00 0.000000e+00 0.000000e+00 0.000000e+00 0.000000e+00 0.000000e+00 0.000000e+00 0.000000e+00 0.000000e+00 0.000000e+00 
    56.5                0.000000e+00 0.000000e+00 0.000000e+00 0.000000e+00 0.000000e+00 0.000000e+00 0.000000e+00 0.000000e+00 0.000000e+00 0.000000e+00 0.000000e+00 0.000000e+00 
    57.5                0.000000e+00 0.000000e+00 0.000000e+00 0.000000e+00 0.000000e+00 0.000000e+00 0.000000e+00 0.000000e+00 0.000000e+00 0.000000e+00 0.000000e+00 0.000000e+00 
    58.5                0.000000e+00 0.000000e+00 0.000000e+00 0.000000e+00 0.000000e+00 0.000000e+00 0.000000e+00 0.000000e+00 0.000000e+00 0.000000e+00 0.000000e+00 0.000000e+00 
    59.5                0.000000e+00 0.000000e+00 0.000000e+00 0.000000e+00 0.000000e+00 0.000000e+00 0.000000e+00 0.000000e+00 0.000000e+00 0.000000e+00 0.000000e+00 0.000000e+00 
    60.5                0.000000e+00 0.000000e+00 0.000000e+00 0.000000e+00 0.000000e+00 0.000000e+00 0.000000e+00 0.000000e+00 0.000000e+00 0.000000e+00 0.000000e+00 0.000000e+00 
    61.5                0.000000e+00 0.000000e+00 0.000000e+00 0.000000e+00 0.000000e+00 0.000000e+00 0.000000e+00 0.000000e+00 0.000000e+00 0.000000e+00 0.000000e+00 0.000000e+00 
    62.5                0.000000e+00 0.000000e+00 0.000000e+00 0.000000e+00 0.000000e+00 0.000000e+00 0.000000e+00 0.000000e+00 0.000000e+00 0.000000e+00 0.000000e+00 0.000000e+00 
    63.5                0.000000e+00 0.000000e+00 0.000000e+00 0.000000e+00 0.000000e+00 0.000000e+00 0.000000e+00 0.000000e+00 0.000000e+00 0.000000e+00 0.000000e+00 0.000000e+00 
    64.5                0.000000e+00 0.000000e+00 0.000000e+00 0.000000e+00 0.000000e+00 0.000000e+00 0.000000e+00 0.000000e+00 0.000000e+00 0.000000e+00 0.000000e+00 0.000000e+00 
    65.5                0.000000e+00 0.000000e+00 0.000000e+00 0.000000e+00 0.000000e+00 0.000000e+00 0.000000e+00 0.000000e+00 0.000000e+00 0.000000e+00 0.000000e+00 0.000000e+00 
    66.5                0.000000e+00 0.000000e+00 0.000000e+00 0.000000e+00 0.000000e+00 0.000000e+00 0.000000e+00 0.000000e+00 0.000000e+00 0.000000e+00 0.000000e+00 0.000000e+00 
    67.5                0.000000e+00 0.000000e+00 0.000000e+00 0.000000e+00 0.000000e+00 0.000000e+00 0.000000e+00 0.000000e+00 0.000000e+00 0.000000e+00 0.000000e+00 0.000000e+00 
    68.5                0.000000e+00 0.000000e+00 0.000000e+00 0.000000e+00 0.000000e+00 0.000000e+00 0.000000e+00 0.000000e+00 0.000000e+00 0.000000e+00 0.000000e+00 0.000000e+00 
    69.5                0.000000e+00 0.000000e+00 0.000000e+00 0.000000e+00 0.000000e+00 0.000000e+00 0.000000e+00 0.000000e+00 0.000000e+00 0.000000e+00 0.000000e+00 0.000000e+00 
    70.5                0.000000e+00 0.000000e+00 0.000000e+00 0.000000e+00 0.000000e+00 0.000000e+00 0.000000e+00 0.000000e+00 0.000000e+00 0.000000e+00 0.000000e+00 0.000000e+00 
    71.5                0.000000e+00 0.000000e+00 0.000000e+00 0.000000e+00 0.000000e+00 0.000000e+00 0.000000e+00 0.000000e+00 0.000000e+00 0.000000e+00 0.000000e+00 0.000000e+00 
    72.5                0.000000e+00 0.000000e+00 0.000000e+00 0.000000e+00 0.000000e+00 0.000000e+00 0.000000e+00 0.000000e+00 0.000000e+00 0.000000e+00 0.000000e+00 0.000000e+00 
    73.5                0.000000e+00 0.000000e+00 0.000000e+00 0.000000e+00 0.000000e+00 0.000000e+00 0.000000e+00 0.000000e+00 0.000000e+00 0.000000e+00 0.000000e+00 0.000000e+00 
    74.5                0.000000e+00 0.000000e+00 0.000000e+00 0.000000e+00 0.000000e+00 0.000000e+00 0.000000e+00 0.000000e+00 0.000000e+00 0.000000e+00 0.000000e+00 0.000000e+00 
    75.5                0.000000e+00 0.000000e+00 0.000000e+00 0.000000e+00 0.000000e+00 0.000000e+00 0.000000e+00 0.000000e+00 0.000000e+00 0.000000e+00 0.000000e+00 0.000000e+00 
    76.5                0.000000e+00 0.000000e+00 0.000000e+00 0.000000e+00 0.000000e+00 0.000000e+00 0.000000e+00 0.000000e+00 0.000000e+00 0.000000e+00 0.000000e+00 0.000000e+00 
    77.5                0.000000e+00 0.000000e+00 0.000000e+00 0.000000e+00 0.000000e+00 0.000000e+00 0.000000e+00 0.000000e+00 0.000000e+00 0.000000e+00 0.000000e+00 0.000000e+00 
    78.5                0.000000e+00 0.000000e+00 0.000000e+00 0.000000e+00 0.000000e+00 0.000000e+00 0.000000e+00 0.000000e+00 0.000000e+00 0.000000e+00 0.000000e+00 0.000000e+00 
    79.5                0.000000e+00 0.000000e+00 0.000000e+00 0.000000e+00 0.000000e+00 0.000000e+00 0.000000e+00 0.000000e+00 0.000000e+00 0.000000e+00 0.000000e+00 0.000000e+00 


