# 80 rows of flux data
# 12 columns of flux data
# 
# total cross-sectional flux  1.028597e+00 /m^2/yr
#
#                       +x vernal eq.           -x           +y           -y +z eclip. N. -z eclip. S.        Earth          Sun     anti-Sun      rot (x)      rot (y)      rot (z) 
# average speed (km/s)         37.43        37.54        37.49        37.52        31.66        34.75        37.19        27.88        27.89        33.80        33.80        37.50 
# total flux (#/m2/yr)  2.241991e-01 2.422363e-01 2.308900e-01 2.349938e-01 6.337468e-01 1.628306e-03 2.421350e-01 1.667682e-01 1.669502e-01 8.525356e-01 8.527676e-01 7.322105e-01 
# velocity (km/s)
     0.5                0.000000e+00 0.000000e+00 0.000000e+00 0.000000e+00 0.000000e+00 0.000000e+00 0.000000e+00 0.000000e+00 0.000000e+00 0.000000e+00 0.000000e+00 0.000000e+00 
     1.5                0.000000e+00 0.000000e+00 0.000000e+00 0.000000e+00 0.000000e+00 0.000000e+00 0.000000e+00 0.000000e+00 0.000000e+00 0.000000e+00 0.000000e+00 0.000000e+00 
     2.5                9.437953e-05 7.209904e-05 8.412096e-05 8.057553e-05 1.547180e-04 1.392150e-06 1.009315e-04 8.392086e-05 8.414092e-05 2.508165e-04 2.522729e-04 2.599246e-04 
     3.5                4.657256e-04 4.039470e-04 4.413687e-04 4.284358e-04 7.448232e-04 9.570518e-06 5.219642e-04 4.399824e-04 4.454487e-04 1.269916e-03 1.271031e-03 1.365791e-03 
     4.5                9.124505e-04 9.100261e-04 9.150906e-04 9.134395e-04 1.625538e-03 1.955425e-05 1.075912e-03 9.716127e-04 9.794106e-04 2.720092e-03 2.714668e-03 2.867190e-03 
     5.5                1.392551e-03 1.470445e-03 1.426976e-03 1.440628e-03 2.733167e-03 2.850044e-05 1.654837e-03 1.600566e-03 1.607237e-03 4.403584e-03 4.403085e-03 4.500879e-03 
     6.5                1.828501e-03 2.036736e-03 1.914533e-03 1.957242e-03 4.108710e-03 3.510292e-05 2.202230e-03 2.230111e-03 2.232875e-03 6.278197e-03 6.276770e-03 6.077267e-03 
     7.5                2.235279e-03 2.541530e-03 2.358538e-03 2.423900e-03 5.595091e-03 3.972460e-05 2.684369e-03 2.810222e-03 2.808139e-03 8.171004e-03 8.166523e-03 7.507221e-03 
     8.5                2.619852e-03 3.000216e-03 2.757527e-03 2.841537e-03 7.059767e-03 4.374339e-05 3.120883e-03 3.349154e-03 3.345317e-03 9.979750e-03 9.994105e-03 8.810579e-03 
     9.5                2.963730e-03 3.332596e-03 3.103773e-03 3.183125e-03 8.482174e-03 4.671882e-05 3.481304e-03 3.823631e-03 3.821699e-03 1.165697e-02 1.166735e-02 9.883235e-03 
    10.5                3.275227e-03 3.626706e-03 3.417931e-03 3.494398e-03 9.893718e-03 4.830077e-05 3.780134e-03 4.272844e-03 4.273672e-03 1.327672e-02 1.327624e-02 1.085054e-02 
    11.5                3.574014e-03 3.932828e-03 3.704016e-03 3.782448e-03 1.155032e-02 4.731136e-05 4.081664e-03 4.721623e-03 4.723849e-03 1.508438e-02 1.509937e-02 1.177545e-02 
    12.5                3.726211e-03 4.212669e-03 3.915225e-03 4.024455e-03 1.281288e-02 4.666273e-05 4.298039e-03 5.043374e-03 5.046712e-03 1.645124e-02 1.645336e-02 1.247043e-02 
    13.5                3.787151e-03 4.362253e-03 3.984957e-03 4.115146e-03 1.391870e-02 4.738885e-05 4.379620e-03 5.181285e-03 5.185656e-03 1.753845e-02 1.756717e-02 1.276097e-02 
    14.5                3.851803e-03 4.324619e-03 4.023673e-03 4.129174e-03 1.454167e-02 4.561026e-05 4.388590e-03 5.233422e-03 5.239127e-03 1.811253e-02 1.812796e-02 1.282456e-02 
    15.5                3.956723e-03 4.450658e-03 4.127191e-03 4.237871e-03 1.572492e-02 4.377689e-05 4.487369e-03 5.345618e-03 5.350951e-03 1.926793e-02 1.928373e-02 1.317086e-02 
    16.5                3.958644e-03 4.416426e-03 4.139837e-03 4.242839e-03 1.604278e-02 4.033457e-05 4.453047e-03 5.358009e-03 5.362403e-03 1.953209e-02 1.953150e-02 1.316092e-02 
    17.5                3.963783e-03 4.464414e-03 4.143942e-03 4.256925e-03 1.651557e-02 3.824519e-05 4.462678e-03 5.324139e-03 5.328995e-03 1.994169e-02 1.995486e-02 1.321560e-02 
    18.5                4.020464e-03 4.428332e-03 4.172446e-03 4.264472e-03 1.701995e-02 3.618634e-05 4.465394e-03 5.284060e-03 5.289220e-03 2.038286e-02 2.038603e-02 1.326186e-02 
    19.5                4.008468e-03 4.417092e-03 4.154929e-03 4.246234e-03 1.715496e-02 3.411601e-05 4.449503e-03 5.170266e-03 5.175475e-03 2.043255e-02 2.044012e-02 1.321840e-02 
    20.5                3.909502e-03 4.332763e-03 4.075803e-03 4.171190e-03 1.696674e-02 3.110718e-05 4.321101e-03 4.983763e-03 4.988730e-03 2.012289e-02 2.012299e-02 1.295204e-02 
    21.5                3.934209e-03 4.239130e-03 4.047931e-03 4.116555e-03 1.710058e-02 2.885975e-05 4.268817e-03 4.844253e-03 4.848441e-03 2.016136e-02 2.016180e-02 1.283234e-02 
    22.5                3.883626e-03 4.285040e-03 4.047747e-03 4.138333e-03 1.738547e-02 2.590726e-05 4.263598e-03 4.719080e-03 4.722729e-03 2.038269e-02 2.037019e-02 1.284209e-02 
    23.5                3.686724e-03 4.115222e-03 3.823364e-03 3.921564e-03 1.646594e-02 2.353733e-05 4.026212e-03 4.418237e-03 4.422132e-03 1.927284e-02 1.929945e-02 1.221185e-02 
    24.5                3.617487e-03 3.844490e-03 3.707115e-03 3.758014e-03 1.579188e-02 2.206304e-05 3.870005e-03 4.155763e-03 4.159280e-03 1.846373e-02 1.846654e-02 1.172323e-02 
    25.5                3.506933e-03 3.753771e-03 3.613551e-03 3.669618e-03 1.543429e-02 1.978757e-05 3.754404e-03 3.927516e-03 3.930988e-03 1.800358e-02 1.799702e-02 1.142133e-02 
    26.5                3.433413e-03 3.656068e-03 3.517948e-03 3.568234e-03 1.487294e-02 1.724096e-05 3.656715e-03 3.717039e-03 3.720054e-03 1.735121e-02 1.735343e-02 1.113382e-02 
    27.5                3.289902e-03 3.615876e-03 3.407617e-03 3.481462e-03 1.429135e-02 1.470033e-05 3.535726e-03 3.510451e-03 3.512720e-03 1.666759e-02 1.667376e-02 1.083051e-02 
    28.5                3.193453e-03 3.451031e-03 3.287595e-03 3.347989e-03 1.367704e-02 1.281111e-05 3.388367e-03 3.248836e-03 3.251426e-03 1.593518e-02 1.594292e-02 1.043005e-02 
    29.5                2.982026e-03 3.306825e-03 3.111362e-03 3.185409e-03 1.295114e-02 1.130478e-05 3.209438e-03 2.944515e-03 2.946522e-03 1.506807e-02 1.507035e-02 9.884600e-03 
    30.5                2.873318e-03 3.092954e-03 2.938968e-03 2.989690e-03 1.235052e-02 9.095545e-06 3.014763e-03 2.725859e-03 2.727444e-03 1.431084e-02 1.432342e-02 9.342116e-03 
    31.5                2.871253e-03 2.970547e-03 2.911317e-03 2.935324e-03 1.197466e-02 7.509111e-06 2.962014e-03 2.560287e-03 2.561857e-03 1.388476e-02 1.388103e-02 9.183472e-03 
    32.5                2.774309e-03 2.908771e-03 2.784860e-03 2.816690e-03 1.124622e-02 7.492888e-06 2.854741e-03 2.348579e-03 2.350210e-03 1.308755e-02 1.311030e-02 8.864802e-03 
    33.5                2.808690e-03 2.863658e-03 2.775004e-03 2.786245e-03 1.086818e-02 7.368611e-06 2.840675e-03 2.170617e-03 2.172516e-03 1.270120e-02 1.274546e-02 8.822268e-03 
    34.5                2.774997e-03 2.943656e-03 2.799684e-03 2.839823e-03 1.094699e-02 5.080826e-06 2.864825e-03 2.085457e-03 2.086408e-03 1.278193e-02 1.282014e-02 8.922578e-03 
    35.5                2.694499e-03 2.795079e-03 2.704992e-03 2.727592e-03 1.008078e-02 3.660681e-06 2.740536e-03 1.947220e-03 1.947872e-03 1.188200e-02 1.190488e-02 8.577046e-03 
    36.5                2.697482e-03 2.697962e-03 2.742324e-03 2.742795e-03 9.834224e-03 3.137355e-06 2.733459e-03 1.818576e-03 1.819317e-03 1.167293e-02 1.163099e-02 8.544294e-03 
    37.5                2.643759e-03 2.930887e-03 2.785082e-03 2.850563e-03 9.937838e-03 2.439122e-06 2.796709e-03 1.761366e-03 1.761786e-03 1.184499e-02 1.181388e-02 8.806476e-03 
    38.5                2.727179e-03 3.028757e-03 2.814223e-03 2.887903e-03 9.710245e-03 1.921810e-06 2.866197e-03 1.689789e-03 1.690479e-03 1.168644e-02 1.170829e-02 9.000302e-03 
    39.5                2.808420e-03 3.080759e-03 2.903217e-03 2.965335e-03 9.630651e-03 1.862477e-06 2.955785e-03 1.639608e-03 1.639903e-03 1.170890e-02 1.171519e-02 9.232874e-03 
    40.5                2.932760e-03 2.902215e-03 2.960850e-03 2.954430e-03 9.445237e-03 1.710086e-06 2.928492e-03 1.571738e-03 1.572177e-03 1.156735e-02 1.151973e-02 9.227254e-03 
    41.5                3.168368e-03 3.001675e-03 3.156015e-03 3.119766e-03 9.475248e-03 2.722375e-06 3.114272e-03 1.553344e-03 1.554111e-03 1.181643e-02 1.175304e-02 9.769159e-03 
    42.5                3.210328e-03 3.234385e-03 3.211506e-03 3.218670e-03 9.227225e-03 4.313781e-06 3.241965e-03 1.546420e-03 1.547108e-03 1.171742e-02 1.173049e-02 1.011038e-02 
    43.5                3.283022e-03 3.214649e-03 3.214425e-03 3.194271e-03 8.788830e-03 6.363492e-06 3.223230e-03 1.499186e-03 1.500275e-03 1.135681e-02 1.140993e-02 1.013159e-02 
    44.5                3.602540e-03 3.423208e-03 3.501710e-03 3.457523e-03 9.155098e-03 5.622669e-06 3.524635e-03 1.545798e-03 1.546960e-03 1.201254e-02 1.204695e-02 1.098290e-02 
    45.5                3.564779e-03 3.798997e-03 3.566778e-03 3.621238e-03 9.192704e-03 2.452834e-06 3.630235e-03 1.548227e-03 1.548961e-03 1.217741e-02 1.229774e-02 1.141663e-02 
    46.5                3.671780e-03 3.706021e-03 3.623946e-03 3.635195e-03 8.940743e-03 5.020507e-06 3.677683e-03 1.514096e-03 1.515033e-03 1.203447e-02 1.213380e-02 1.149457e-02 
    47.5                3.873868e-03 3.786465e-03 3.850479e-03 3.828473e-03 8.868246e-03 6.942488e-06 3.857042e-03 1.536979e-03 1.538243e-03 1.231028e-02 1.229875e-02 1.205447e-02 
    48.5                4.163994e-03 4.106599e-03 4.060499e-03 4.047341e-03 8.826313e-03 9.196576e-06 4.145602e-03 1.585396e-03 1.587452e-03 1.260744e-02 1.271676e-02 1.286475e-02 
    49.5                4.694266e-03 4.326558e-03 4.488510e-03 4.401518e-03 9.116124e-03 9.843975e-06 4.497916e-03 1.645765e-03 1.647336e-03 1.340364e-02 1.349534e-02 1.407094e-02 
    50.5                5.308799e-03 4.611998e-03 5.080094e-03 4.916786e-03 9.446626e-03 1.137768e-05 5.013981e-03 1.729808e-03 1.731558e-03 1.447903e-02 1.443059e-02 1.563763e-02 
    51.5                5.898118e-03 5.287512e-03 5.740351e-03 5.598213e-03 9.747298e-03 1.811626e-05 5.735050e-03 1.815759e-03 1.818507e-03 1.576566e-02 1.565869e-02 1.769889e-02 
    52.5                5.903605e-03 5.896857e-03 6.027107e-03 6.028262e-03 9.542004e-03 2.614259e-05 6.106885e-03 1.865523e-03 1.869094e-03 1.622483e-02 1.603839e-02 1.874580e-02 
    53.5                5.776819e-03 6.297707e-03 6.060233e-03 6.182288e-03 9.103847e-03 3.988369e-05 6.268235e-03 1.885283e-03 1.890973e-03 1.611381e-02 1.598077e-02 1.909931e-02 
    54.5                5.674214e-03 6.294543e-03 5.922841e-03 6.067214e-03 8.610385e-03 4.016995e-05 6.189656e-03 1.869359e-03 1.874068e-03 1.557712e-02 1.555548e-02 1.881223e-02 
    55.5                5.811616e-03 6.137530e-03 5.825434e-03 5.899816e-03 8.211839e-03 4.129418e-05 6.057560e-03 1.845042e-03 1.849500e-03 1.510018e-02 1.527264e-02 1.858658e-02 
    56.5                5.658551e-03 5.902468e-03 5.761250e-03 5.816396e-03 7.799310e-03 5.236715e-05 6.010933e-03 1.806953e-03 1.812486e-03 1.471643e-02 1.469264e-02 1.817175e-02 
    57.5                5.119001e-03 5.694142e-03 5.383535e-03 5.516305e-03 7.069667e-03 5.799778e-05 5.657270e-03 1.720201e-03 1.726310e-03 1.367619e-02 1.360863e-02 1.705307e-02 
    58.5                4.790981e-03 5.383166e-03 5.012775e-03 5.152427e-03 6.388842e-03 5.146222e-05 5.291640e-03 1.591882e-03 1.597195e-03 1.261932e-02 1.262651e-02 1.597219e-02 
    59.5                4.612807e-03 5.082630e-03 4.760845e-03 4.869077e-03 5.887063e-03 4.414547e-05 5.022819e-03 1.461486e-03 1.466154e-03 1.184181e-02 1.189349e-02 1.517317e-02 
    60.5                4.220061e-03 4.848943e-03 4.442203e-03 4.587129e-03 5.322886e-03 3.936289e-05 4.685718e-03 1.306705e-03 1.310585e-03 1.097855e-02 1.101105e-02 1.421350e-02 
    61.5                3.725589e-03 4.427190e-03 3.973964e-03 4.135049e-03 4.551175e-03 3.891577e-05 4.256417e-03 1.145356e-03 1.149111e-03 9.727635e-03 9.762065e-03 1.277599e-02 
    62.5                3.146387e-03 3.931584e-03 3.423994e-03 3.606604e-03 3.765209e-03 3.961215e-05 3.674191e-03 9.802380e-04 9.837275e-04 8.334592e-03 8.365102e-03 1.107879e-02 
    63.5                2.479703e-03 3.263845e-03 2.815535e-03 2.998159e-03 2.969964e-03 3.507484e-05 3.022351e-03 8.078591e-04 8.111583e-04 6.803470e-03 6.746797e-03 9.071778e-03 
    64.5                2.021503e-03 2.690683e-03 2.266893e-03 2.420926e-03 2.348369e-03 3.024218e-05 2.461798e-03 6.409508e-04 6.435074e-04 5.461384e-03 5.483033e-03 7.384335e-03 
    65.5                1.565510e-03 2.096138e-03 1.805634e-03 1.928415e-03 1.767962e-03 2.592035e-05 1.955255e-03 4.846580e-04 4.869645e-04 4.292947e-03 4.231886e-03 5.808884e-03 
    66.5                1.140583e-03 1.663444e-03 1.363722e-03 1.485525e-03 1.282361e-03 2.297537e-05 1.508418e-03 3.483385e-04 3.504967e-04 3.244228e-03 3.202744e-03 4.440618e-03 
    67.5                7.396060e-04 1.210801e-03 9.396825e-04 1.048992e-03 8.406545e-04 1.747796e-05 1.054119e-03 2.273161e-04 2.289869e-04 2.237004e-03 2.202720e-03 3.093937e-03 
    68.5                4.260543e-04 8.263778e-04 5.827974e-04 6.749295e-04 4.930179e-04 1.345709e-05 6.796633e-04 1.315440e-04 1.327685e-04 1.397171e-03 1.392409e-03 1.971736e-03 
    69.5                1.959152e-04 5.060013e-04 3.141154e-04 3.859302e-04 2.469724e-04 9.913752e-06 3.878285e-04 6.451296e-05 6.547256e-05 7.670208e-04 7.671228e-04 1.100398e-03 
    70.5                6.076790e-05 2.561555e-04 1.277798e-04 1.725823e-04 9.305850e-05 6.337824e-06 1.789568e-04 2.464488e-05 2.531947e-05 3.252852e-04 3.392234e-04 4.848018e-04 
    71.5                1.060036e-05 9.103288e-05 3.419974e-05 5.261005e-05 2.277783e-05 2.365240e-06 5.384329e-05 6.237095e-06 6.527062e-06 9.297611e-05 1.061856e-04 1.479913e-04 
    72.5                4.405730e-07 1.656783e-05 4.320453e-06 8.046231e-06 2.487077e-06 3.581138e-07 8.353989e-06 8.748930e-07 9.375293e-07 1.304334e-05 1.735171e-05 2.308038e-05 
    73.5                1.649708e-11 1.375449e-06 1.757333e-07 4.995757e-07 7.627449e-08 1.867779e-08 4.529013e-07 3.776492e-08 4.160869e-08 6.927243e-07 1.380268e-06 1.613226e-06 
    74.5                0.000000e+00 0.000000e+00 0.000000e+00 0.000000e+00 0.000000e+00 0.000000e+00 0.000000e+00 0.000000e+00 0.000000e+00 0.000000e+00 0.000000e+00 0.000000e+00 
    75.5                0.000000e+00 0.000000e+00 0.000000e+00 0.000000e+00 0.000000e+00 0.000000e+00 0.000000e+00 0.000000e+00 0.000000e+00 0.000000e+00 0.000000e+00 0.000000e+00 
    76.5                0.000000e+00 0.000000e+00 0.000000e+00 0.000000e+00 0.000000e+00 0.000000e+00 0.000000e+00 0.000000e+00 0.000000e+00 0.000000e+00 0.000000e+00 0.000000e+00 
    77.5                0.000000e+00 0.000000e+00 0.000000e+00 0.000000e+00 0.000000e+00 0.000000e+00 0.000000e+00 0.000000e+00 0.000000e+00 0.000000e+00 0.000000e+00 0.000000e+00 
    78.5                0.000000e+00 0.000000e+00 0.000000e+00 0.000000e+00 0.000000e+00 0.000000e+00 0.000000e+00 0.000000e+00 0.000000e+00 0.000000e+00 0.000000e+00 0.000000e+00 
    79.5                0.000000e+00 0.000000e+00 0.000000e+00 0.000000e+00 0.000000e+00 0.000000e+00 0.000000e+00 0.000000e+00 0.000000e+00 0.000000e+00 0.000000e+00 0.000000e+00 


