# 80 rows of flux data
# 12 columns of flux data
# 
# total cross-sectional flux  2.153821e+00 /m^2/yr
#
#                             +x ram      -x wake      +y port -y starboard    +z zenith     -z nadir        Earth          Sun     anti-Sun      rot (x)      rot (y)      rot (z) 
# average speed (km/s)         23.84        24.66        19.19        21.36        24.27        23.68        24.26        24.68        24.68        23.64        24.27        23.70 
# total flux (#/m2/yr)  6.114250e-01 7.160987e-01 1.737198e-01 2.728886e-01 1.284329e+00 4.940084e-04 1.279104e+00 9.343897e-01 9.478105e-01 1.444944e+00 2.059017e+00 1.484285e+00 
# velocity (km/s)
     0.5                0.000000e+00 0.000000e+00 0.000000e+00 0.000000e+00 0.000000e+00 0.000000e+00 0.000000e+00 0.000000e+00 0.000000e+00 0.000000e+00 0.000000e+00 0.000000e+00 
     1.5                0.000000e+00 0.000000e+00 0.000000e+00 0.000000e+00 0.000000e+00 0.000000e+00 0.000000e+00 0.000000e+00 0.000000e+00 0.000000e+00 0.000000e+00 0.000000e+00 
     2.5                4.871973e-06 0.000000e+00 3.201557e-07 3.428916e-07 2.376355e-06 8.875644e-10 2.359388e-06 1.192481e-07 2.058614e-06 2.629153e-06 5.648343e-06 4.971861e-06 
     3.5                1.168696e-04 3.186481e-06 1.902577e-05 2.403500e-05 1.032812e-04 4.397651e-08 1.031333e-04 2.077181e-05 5.763885e-05 1.212055e-04 1.764312e-04 1.333863e-04 
     4.5                5.374737e-04 1.202431e-04 1.325522e-04 1.671012e-04 6.066636e-04 2.470458e-07 6.062872e-04 1.667115e-04 2.946381e-04 7.335651e-04 9.966681e-04 7.687331e-04 
     5.5                1.467056e-03 5.687646e-04 5.047317e-04 6.272840e-04 2.049656e-03 7.763066e-07 2.050018e-03 7.117547e-04 9.643947e-04 2.538194e-03 3.223903e-03 2.508071e-03 
     6.5                2.753768e-03 1.904391e-03 1.191511e-03 1.473510e-03 4.583778e-03 1.817738e-06 4.585546e-03 1.835914e-03 2.181544e-03 5.740374e-03 7.287291e-03 5.787212e-03 
     7.5                4.891135e-03 3.556232e-03 2.253014e-03 2.750167e-03 8.164068e-03 3.435683e-06 8.166717e-03 3.629975e-03 3.953768e-03 1.040594e-02 1.309731e-02 1.061069e-02 
     8.5                7.286404e-03 6.021291e-03 3.545252e-03 4.367787e-03 1.311846e-02 5.350863e-06 1.312115e-02 6.206763e-03 6.345578e-03 1.661834e-02 2.083320e-02 1.670133e-02 
     9.5                9.286169e-03 9.195507e-03 5.029266e-03 6.179484e-03 1.830650e-02 7.526033e-06 1.830160e-02 9.289570e-03 9.284180e-03 2.328561e-02 2.900779e-02 2.336284e-02 
    10.5                1.129877e-02 1.243224e-02 6.632036e-03 8.033401e-03 2.287483e-02 9.997017e-06 2.285191e-02 1.269631e-02 1.271845e-02 2.955253e-02 3.674998e-02 3.020966e-02 
    11.5                1.296917e-02 1.466966e-02 7.939279e-03 9.558258e-03 2.693578e-02 1.180626e-05 2.688574e-02 1.604097e-02 1.613143e-02 3.503337e-02 4.303716e-02 3.555904e-02 
    12.5                1.422013e-02 1.684345e-02 8.789062e-03 1.055766e-02 2.989155e-02 1.351036e-05 2.980899e-02 1.904711e-02 1.917392e-02 3.895337e-02 4.807289e-02 3.980282e-02 
    13.5                1.614639e-02 1.811837e-02 9.367144e-03 1.133910e-02 3.286373e-02 1.484325e-05 3.275176e-02 2.195919e-02 2.211940e-02 4.252374e-02 5.292690e-02 4.358008e-02 
    14.5                1.781843e-02 1.977687e-02 9.673325e-03 1.193033e-02 3.634773e-02 1.603942e-05 3.620573e-02 2.504105e-02 2.526068e-02 4.619369e-02 5.830477e-02 4.712305e-02 
    15.5                1.935577e-02 2.147375e-02 9.665278e-03 1.221002e-02 3.952522e-02 1.709405e-05 3.935771e-02 2.797267e-02 2.823972e-02 4.918660e-02 6.336565e-02 5.015720e-02 
    16.5                2.074203e-02 2.331025e-02 9.609789e-03 1.247546e-02 4.258132e-02 1.801298e-05 4.239188e-02 3.073527e-02 3.104901e-02 5.202934e-02 6.830162e-02 5.319756e-02 
    17.5                2.207789e-02 2.463245e-02 9.331038e-03 1.248001e-02 4.509231e-02 1.867004e-05 4.488153e-02 3.319866e-02 3.355670e-02 5.408942e-02 7.237925e-02 5.537590e-02 
    18.5                2.304453e-02 2.583861e-02 8.920912e-03 1.233733e-02 4.737722e-02 1.913224e-05 4.714916e-02 3.538304e-02 3.576685e-02 5.575699e-02 7.589366e-02 5.697857e-02 
    19.5                2.376983e-02 2.700164e-02 8.589275e-03 1.221474e-02 4.909512e-02 1.956566e-05 4.885183e-02 3.713551e-02 3.754875e-02 5.701327e-02 7.873271e-02 5.843258e-02 
    20.5                2.443098e-02 2.760362e-02 8.104053e-03 1.189161e-02 5.024150e-02 1.981998e-05 4.998702e-02 3.834275e-02 3.878425e-02 5.758391e-02 8.063114e-02 5.911967e-02 
    21.5                2.542757e-02 2.805271e-02 7.584004e-03 1.159129e-02 5.170136e-02 1.989211e-05 5.143875e-02 3.965380e-02 4.013707e-02 5.840490e-02 8.291819e-02 5.994667e-02 
    22.5                2.604950e-02 2.894504e-02 7.282619e-03 1.145176e-02 5.336016e-02 2.027101e-05 5.308755e-02 4.102001e-02 4.154042e-02 5.968695e-02 8.541829e-02 6.114117e-02 
    23.5                2.628731e-02 2.970455e-02 6.763060e-03 1.109793e-02 5.421722e-02 2.030888e-05 5.394349e-02 4.179238e-02 4.234278e-02 5.994986e-02 8.687542e-02 6.155548e-02 
    24.5                2.641553e-02 2.986170e-02 6.236373e-03 1.065583e-02 5.447275e-02 2.022054e-05 5.420005e-02 4.201061e-02 4.258972e-02 5.966363e-02 8.730248e-02 6.131542e-02 
    25.5                2.629554e-02 2.990998e-02 5.655480e-03 1.013084e-02 5.447052e-02 1.996008e-05 5.420319e-02 4.193752e-02 4.253876e-02 5.908025e-02 8.724283e-02 6.070452e-02 
    26.5                2.563449e-02 2.977506e-02 5.083870e-03 9.534102e-03 5.372843e-02 1.954070e-05 5.346931e-02 4.130012e-02 4.190930e-02 5.781554e-02 8.603181e-02 5.940128e-02 
    27.5                2.498052e-02 2.915258e-02 4.522038e-03 8.889627e-03 5.231714e-02 1.900211e-05 5.206832e-02 4.019324e-02 4.080116e-02 5.590255e-02 8.391132e-02 5.765253e-02 
    28.5                2.414021e-02 2.821385e-02 3.998560e-03 8.257661e-03 5.074499e-02 1.826360e-05 5.050951e-02 3.880594e-02 3.940959e-02 5.388737e-02 8.126702e-02 5.545289e-02 
    29.5                2.301872e-02 2.733492e-02 3.491736e-03 7.608340e-03 4.876705e-02 1.749215e-05 4.854622e-02 3.716919e-02 3.776256e-02 5.147502e-02 7.812772e-02 5.305234e-02 
    30.5                2.176952e-02 2.607952e-02 2.994937e-03 6.922564e-03 4.632641e-02 1.659117e-05 4.612320e-02 3.516192e-02 3.573454e-02 4.863351e-02 7.423247e-02 5.015971e-02 
    31.5                2.030833e-02 2.468628e-02 2.500455e-03 6.210830e-03 4.356811e-02 1.552613e-05 4.338314e-02 3.288945e-02 3.343532e-02 4.548519e-02 6.980863e-02 4.693788e-02 
    32.5                1.862500e-02 2.308720e-02 2.054244e-03 5.507482e-03 4.040906e-02 1.435998e-05 4.024502e-02 3.030169e-02 3.081318e-02 4.198655e-02 6.473158e-02 4.332948e-02 
    33.5                1.673099e-02 2.130682e-02 1.668632e-03 4.823459e-03 3.680843e-02 1.306125e-05 3.666547e-02 2.742374e-02 2.789145e-02 3.809390e-02 5.899593e-02 3.937760e-02 
    34.5                1.483769e-02 1.924045e-02 1.327404e-03 4.157877e-03 3.294733e-02 1.169507e-05 3.282609e-02 2.438108e-02 2.480067e-02 3.397983e-02 5.283196e-02 3.517423e-02 
    35.5                1.295180e-02 1.713966e-02 1.020575e-03 3.522590e-03 2.905797e-02 1.032300e-05 2.895615e-02 2.134940e-02 2.172137e-02 2.986631e-02 4.662450e-02 3.096565e-02 
    36.5                1.112281e-02 1.501157e-02 7.533594e-04 2.931754e-03 2.524377e-02 8.923478e-06 2.516144e-02 1.838518e-02 1.870702e-02 2.585512e-02 4.049749e-02 2.681566e-02 
    37.5                9.347702e-03 1.297690e-02 5.409270e-04 2.403453e-03 2.154378e-02 7.631477e-06 2.147816e-02 1.555330e-02 1.582794e-02 2.199892e-02 3.457684e-02 2.284946e-02 
    38.5                7.600773e-03 1.098080e-02 3.730438e-04 1.926879e-03 1.794376e-02 6.329545e-06 1.789353e-02 1.282806e-02 1.305456e-02 1.827254e-02 2.879002e-02 1.897810e-02 
    39.5                5.910078e-03 9.070424e-03 2.451981e-04 1.496756e-03 1.443421e-02 5.104412e-06 1.439786e-02 1.022586e-02 1.040363e-02 1.466381e-02 2.318452e-02 1.527027e-02 
    40.5                4.370142e-03 7.187744e-03 1.512105e-04 1.114388e-03 1.109781e-02 3.958980e-06 1.107305e-02 7.792580e-03 7.926323e-03 1.125100e-02 1.785839e-02 1.176202e-02 
    41.5                3.084039e-03 5.435300e-03 8.704127e-05 7.930257e-04 8.127549e-03 2.918337e-06 8.111623e-03 5.664730e-03 5.759163e-03 8.225012e-03 1.312206e-02 8.657113e-03 
    42.5                2.059630e-03 3.903267e-03 4.699509e-05 5.401998e-04 5.674469e-03 2.053444e-06 5.665092e-03 3.916816e-03 3.980588e-03 5.733685e-03 9.173845e-03 6.052641e-03 
    43.5                1.234354e-03 2.683605e-03 2.372895e-05 3.465637e-04 3.712961e-03 1.348628e-06 3.708023e-03 2.539698e-03 2.579298e-03 3.746975e-03 6.015622e-03 3.973462e-03 
    44.5                6.427358e-04 1.702156e-03 1.089713e-05 2.006338e-04 2.182278e-03 8.231340e-07 2.180189e-03 1.490745e-03 1.511516e-03 2.200235e-03 3.568920e-03 2.375677e-03 
    45.5                2.670724e-04 9.493867e-04 4.410731e-06 1.004133e-04 1.104484e-03 4.345328e-07 1.103910e-03 7.567974e-04 7.653806e-04 1.112782e-03 1.829729e-03 1.231227e-03 
    46.5                7.847529e-05 4.428267e-04 1.559562e-06 4.027646e-05 4.458606e-04 1.973741e-07 4.458339e-04 3.126670e-04 3.152226e-04 4.490577e-04 7.626355e-04 5.268682e-04 
    47.5                1.540703e-05 1.520774e-04 4.418760e-07 1.178598e-05 1.307824e-04 6.828091e-08 1.308406e-04 9.595965e-05 9.603350e-05 1.317175e-04 2.355103e-04 1.689799e-04 
    48.5                1.403667e-06 3.657880e-05 8.642910e-08 2.360239e-06 2.625686e-05 1.648831e-08 2.628634e-05 2.054872e-05 2.042712e-05 2.644578e-05 5.074418e-05 3.823915e-05 
    49.5                1.253698e-08 5.074089e-06 1.143118e-08 2.530698e-07 2.801090e-06 2.652004e-09 2.808394e-06 2.521413e-06 2.480248e-06 2.823744e-06 6.232140e-06 5.104396e-06 
    50.5                0.000000e+00 1.450260e-07 3.504786e-10 4.847691e-09 5.223486e-08 7.475213e-11 5.262273e-08 6.474822e-08 6.182694e-08 5.279156e-08 1.584363e-07 1.451753e-07 
    51.5                0.000000e+00 0.000000e+00 0.000000e+00 0.000000e+00 0.000000e+00 0.000000e+00 0.000000e+00 0.000000e+00 0.000000e+00 0.000000e+00 0.000000e+00 0.000000e+00 
    52.5                0.000000e+00 0.000000e+00 0.000000e+00 0.000000e+00 0.000000e+00 0.000000e+00 0.000000e+00 0.000000e+00 0.000000e+00 0.000000e+00 0.000000e+00 0.000000e+00 
    53.5                0.000000e+00 0.000000e+00 0.000000e+00 0.000000e+00 0.000000e+00 0.000000e+00 0.000000e+00 0.000000e+00 0.000000e+00 0.000000e+00 0.000000e+00 0.000000e+00 
    54.5                0.000000e+00 0.000000e+00 0.000000e+00 0.000000e+00 0.000000e+00 0.000000e+00 0.000000e+00 0.000000e+00 0.000000e+00 0.000000e+00 0.000000e+00 0.000000e+00 
    55.5                0.000000e+00 0.000000e+00 0.000000e+00 0.000000e+00 0.000000e+00 0.000000e+00 0.000000e+00 0.000000e+00 0.000000e+00 0.000000e+00 0.000000e+00 0.000000e+00 
    56.5                0.000000e+00 0.000000e+00 0.000000e+00 0.000000e+00 0.000000e+00 0.000000e+00 0.000000e+00 0.000000e+00 0.000000e+00 0.000000e+00 0.000000e+00 0.000000e+00 
    57.5                0.000000e+00 0.000000e+00 0.000000e+00 0.000000e+00 0.000000e+00 0.000000e+00 0.000000e+00 0.000000e+00 0.000000e+00 0.000000e+00 0.000000e+00 0.000000e+00 
    58.5                0.000000e+00 0.000000e+00 0.000000e+00 0.000000e+00 0.000000e+00 0.000000e+00 0.000000e+00 0.000000e+00 0.000000e+00 0.000000e+00 0.000000e+00 0.000000e+00 
    59.5                0.000000e+00 0.000000e+00 0.000000e+00 0.000000e+00 0.000000e+00 0.000000e+00 0.000000e+00 0.000000e+00 0.000000e+00 0.000000e+00 0.000000e+00 0.000000e+00 
    60.5                0.000000e+00 0.000000e+00 0.000000e+00 0.000000e+00 0.000000e+00 0.000000e+00 0.000000e+00 0.000000e+00 0.000000e+00 0.000000e+00 0.000000e+00 0.000000e+00 
    61.5                0.000000e+00 0.000000e+00 0.000000e+00 0.000000e+00 0.000000e+00 0.000000e+00 0.000000e+00 0.000000e+00 0.000000e+00 0.000000e+00 0.000000e+00 0.000000e+00 
    62.5                0.000000e+00 0.000000e+00 0.000000e+00 0.000000e+00 0.000000e+00 0.000000e+00 0.000000e+00 0.000000e+00 0.000000e+00 0.000000e+00 0.000000e+00 0.000000e+00 
    63.5                0.000000e+00 0.000000e+00 0.000000e+00 0.000000e+00 0.000000e+00 0.000000e+00 0.000000e+00 0.000000e+00 0.000000e+00 0.000000e+00 0.000000e+00 0.000000e+00 
    64.5                0.000000e+00 0.000000e+00 0.000000e+00 0.000000e+00 0.000000e+00 0.000000e+00 0.000000e+00 0.000000e+00 0.000000e+00 0.000000e+00 0.000000e+00 0.000000e+00 
    65.5                0.000000e+00 0.000000e+00 0.000000e+00 0.000000e+00 0.000000e+00 0.000000e+00 0.000000e+00 0.000000e+00 0.000000e+00 0.000000e+00 0.000000e+00 0.000000e+00 
    66.5                0.000000e+00 0.000000e+00 0.000000e+00 0.000000e+00 0.000000e+00 0.000000e+00 0.000000e+00 0.000000e+00 0.000000e+00 0.000000e+00 0.000000e+00 0.000000e+00 
    67.5                0.000000e+00 0.000000e+00 0.000000e+00 0.000000e+00 0.000000e+00 0.000000e+00 0.000000e+00 0.000000e+00 0.000000e+00 0.000000e+00 0.000000e+00 0.000000e+00 
    68.5                0.000000e+00 0.000000e+00 0.000000e+00 0.000000e+00 0.000000e+00 0.000000e+00 0.000000e+00 0.000000e+00 0.000000e+00 0.000000e+00 0.000000e+00 0.000000e+00 
    69.5                0.000000e+00 0.000000e+00 0.000000e+00 0.000000e+00 0.000000e+00 0.000000e+00 0.000000e+00 0.000000e+00 0.000000e+00 0.000000e+00 0.000000e+00 0.000000e+00 
    70.5                0.000000e+00 0.000000e+00 0.000000e+00 0.000000e+00 0.000000e+00 0.000000e+00 0.000000e+00 0.000000e+00 0.000000e+00 0.000000e+00 0.000000e+00 0.000000e+00 
    71.5                0.000000e+00 0.000000e+00 0.000000e+00 0.000000e+00 0.000000e+00 0.000000e+00 0.000000e+00 0.000000e+00 0.000000e+00 0.000000e+00 0.000000e+00 0.000000e+00 
    72.5                0.000000e+00 0.000000e+00 0.000000e+00 0.000000e+00 0.000000e+00 0.000000e+00 0.000000e+00 0.000000e+00 0.000000e+00 0.000000e+00 0.000000e+00 0.000000e+00 
    73.5                0.000000e+00 0.000000e+00 0.000000e+00 0.000000e+00 0.000000e+00 0.000000e+00 0.000000e+00 0.000000e+00 0.000000e+00 0.000000e+00 0.000000e+00 0.000000e+00 
    74.5                0.000000e+00 0.000000e+00 0.000000e+00 0.000000e+00 0.000000e+00 0.000000e+00 0.000000e+00 0.000000e+00 0.000000e+00 0.000000e+00 0.000000e+00 0.000000e+00 
    75.5                0.000000e+00 0.000000e+00 0.000000e+00 0.000000e+00 0.000000e+00 0.000000e+00 0.000000e+00 0.000000e+00 0.000000e+00 0.000000e+00 0.000000e+00 0.000000e+00 
    76.5                0.000000e+00 0.000000e+00 0.000000e+00 0.000000e+00 0.000000e+00 0.000000e+00 0.000000e+00 0.000000e+00 0.000000e+00 0.000000e+00 0.000000e+00 0.000000e+00 
    77.5                0.000000e+00 0.000000e+00 0.000000e+00 0.000000e+00 0.000000e+00 0.000000e+00 0.000000e+00 0.000000e+00 0.000000e+00 0.000000e+00 0.000000e+00 0.000000e+00 
    78.5                0.000000e+00 0.000000e+00 0.000000e+00 0.000000e+00 0.000000e+00 0.000000e+00 0.000000e+00 0.000000e+00 0.000000e+00 0.000000e+00 0.000000e+00 0.000000e+00 
    79.5                0.000000e+00 0.000000e+00 0.000000e+00 0.000000e+00 0.000000e+00 0.000000e+00 0.000000e+00 0.000000e+00 0.000000e+00 0.000000e+00 0.000000e+00 0.000000e+00 


