# 80 rows of flux data
# 12 columns of flux data
# 
# total cross-sectional flux  1.057912e+00 /m^2/yr
#
#                             +x ram      -x wake      +y port -y starboard    +z zenith     -z nadir        Earth          Sun     anti-Sun      rot (x)      rot (y)      rot (z) 
# average speed (km/s)         38.06        36.78        28.39        35.54        36.45        31.40        37.95        27.59        28.08        33.58        36.91        33.88 
# total flux (#/m2/yr)  2.196688e-01 2.617410e-01 3.557776e-01 2.765190e-01 4.759907e-01 4.136792e-04 4.450385e-01 1.655580e-01 1.755394e-01 8.754087e-01 7.552847e-01 8.659034e-01 
# velocity (km/s)
     0.5                0.000000e+00 0.000000e+00 0.000000e+00 0.000000e+00 0.000000e+00 0.000000e+00 0.000000e+00 0.000000e+00 0.000000e+00 0.000000e+00 0.000000e+00 0.000000e+00 
     1.5                0.000000e+00 0.000000e+00 0.000000e+00 0.000000e+00 0.000000e+00 0.000000e+00 0.000000e+00 0.000000e+00 0.000000e+00 0.000000e+00 0.000000e+00 0.000000e+00 
     2.5                1.187151e-04 2.638253e-05 7.416757e-05 7.306910e-05 1.554374e-04 6.820125e-08 1.512279e-04 7.234403e-05 8.200994e-05 2.402444e-04 2.383676e-04 2.299859e-04 
     3.5                4.740178e-04 3.258914e-04 3.312344e-04 3.848606e-04 8.078782e-04 3.842678e-07 8.004538e-04 3.934985e-04 4.343620e-04 1.202212e-03 1.269456e-03 1.189222e-03 
     4.5                8.496963e-04 9.320372e-04 7.660130e-04 8.840371e-04 1.736428e-03 9.615691e-07 1.721542e-03 9.211437e-04 9.716037e-04 2.668324e-03 2.776461e-03 2.689804e-03 
     5.5                1.272645e-03 1.612536e-03 1.365351e-03 1.476578e-03 2.762069e-03 1.745590e-06 2.721809e-03 1.559633e-03 1.621966e-03 4.418877e-03 4.454942e-03 4.477001e-03 
     6.5                1.656826e-03 2.309542e-03 2.193878e-03 2.087715e-03 3.826537e-03 2.696396e-06 3.699131e-03 2.219695e-03 2.274754e-03 6.395739e-03 6.147714e-03 6.451088e-03 
     7.5                2.036142e-03 2.900996e-03 3.146371e-03 2.687921e-03 4.807436e-03 3.769596e-06 4.570507e-03 2.824837e-03 2.884124e-03 8.407888e-03 7.688552e-03 8.438220e-03 
     8.5                2.381663e-03 3.438938e-03 4.112124e-03 3.208250e-03 5.708903e-03 4.727339e-06 5.330939e-03 3.390635e-03 3.430466e-03 1.029642e-02 9.095550e-03 1.029923e-02 
     9.5                2.650325e-03 3.869272e-03 5.083310e-03 3.680471e-03 6.490329e-03 5.776968e-06 5.969575e-03 3.872053e-03 3.927062e-03 1.207073e-02 1.026350e-02 1.200103e-02 
    10.5                2.959655e-03 4.220216e-03 6.070071e-03 4.103184e-03 7.192086e-03 6.760068e-06 6.510071e-03 4.315081e-03 4.402567e-03 1.375023e-02 1.133903e-02 1.364401e-02 
    11.5                3.196135e-03 4.600276e-03 7.306205e-03 4.512893e-03 7.955728e-03 7.798632e-06 7.038488e-03 4.770650e-03 4.887296e-03 1.566967e-02 1.242571e-02 1.546109e-02 
    12.5                3.379079e-03 4.882975e-03 8.194297e-03 4.898671e-03 8.480411e-03 8.831418e-06 7.430498e-03 5.092674e-03 5.234948e-03 1.711006e-02 1.321085e-02 1.684637e-02 
    13.5                3.413609e-03 5.056027e-03 9.145244e-03 5.016556e-03 8.811081e-03 9.406682e-06 7.526887e-03 5.227498e-03 5.378301e-03 1.823060e-02 1.363914e-02 1.791197e-02 
    14.5                3.541938e-03 4.947449e-03 9.710722e-03 5.036812e-03 8.956248e-03 9.805606e-06 7.527656e-03 5.278012e-03 5.439155e-03 1.881958e-02 1.376606e-02 1.843671e-02 
    15.5                3.607173e-03 5.116163e-03 1.066724e-02 5.246149e-03 9.318177e-03 1.062539e-05 7.695746e-03 5.392563e-03 5.569593e-03 2.004981e-02 1.423719e-02 1.958650e-02 
    16.5                3.657093e-03 5.068757e-03 1.095378e-02 5.238885e-03 9.356404e-03 1.081593e-05 7.655993e-03 5.406172e-03 5.583345e-03 2.030603e-02 1.426708e-02 1.981649e-02 
    17.5                3.673026e-03 5.084450e-03 1.130480e-02 5.323154e-03 9.458688e-03 1.097831e-05 7.683173e-03 5.364440e-03 5.555677e-03 2.073086e-02 1.437581e-02 2.019923e-02 
    18.5                3.737035e-03 5.053691e-03 1.171693e-02 5.393945e-03 9.542375e-03 1.137590e-05 7.685011e-03 5.326096e-03 5.524055e-03 2.118968e-02 1.446765e-02 2.062085e-02 
    19.5                3.724819e-03 5.012499e-03 1.176903e-02 5.463487e-03 9.519939e-03 1.162737e-05 7.681669e-03 5.205727e-03 5.413993e-03 2.127596e-02 1.440401e-02 2.064628e-02 
    20.5                3.670965e-03 4.937322e-03 1.160150e-02 5.407802e-03 9.288069e-03 1.141770e-05 7.488443e-03 5.016587e-03 5.224902e-03 2.091428e-02 1.411928e-02 2.033442e-02 
    21.5                3.719272e-03 4.782271e-03 1.169713e-02 5.383698e-03 9.263947e-03 1.112042e-05 7.427003e-03 4.868424e-03 5.079720e-03 2.093839e-02 1.401500e-02 2.030040e-02 
    22.5                3.645904e-03 4.853843e-03 1.186403e-02 5.494857e-03 9.298763e-03 1.144091e-05 7.458052e-03 4.741951e-03 4.962669e-03 2.119411e-02 1.404559e-02 2.051647e-02 
    23.5                3.497864e-03 4.626237e-03 1.121333e-02 5.209936e-03 8.770505e-03 1.085478e-05 7.042707e-03 4.441385e-03 4.644790e-03 2.002912e-02 1.332391e-02 1.942548e-02 
    24.5                3.417022e-03 4.361843e-03 1.066558e-02 5.091869e-03 8.393381e-03 1.058988e-05 6.795323e-03 4.171697e-03 4.372090e-03 1.920184e-02 1.275304e-02 1.859486e-02 
    25.5                3.329003e-03 4.271494e-03 1.038512e-02 5.028322e-03 8.145908e-03 1.063705e-05 6.619025e-03 3.942432e-03 4.140943e-03 1.874193e-02 1.241685e-02 1.815197e-02 
    26.5                3.304190e-03 4.088127e-03 9.862724e-03 4.968174e-03 7.891997e-03 1.017372e-05 6.495395e-03 3.726644e-03 3.925549e-03 1.806808e-02 1.205154e-02 1.747979e-02 
    27.5                3.173976e-03 4.025305e-03 9.329496e-03 4.916886e-03 7.602308e-03 9.960384e-06 6.345078e-03 3.517024e-03 3.713189e-03 1.736808e-02 1.167133e-02 1.680606e-02 
    28.5                3.105163e-03 3.842481e-03 8.830099e-03 4.783844e-03 7.277406e-03 9.478703e-06 6.120980e-03 3.252909e-03 3.443900e-03 1.659411e-02 1.121770e-02 1.606690e-02 
    29.5                2.881391e-03 3.699656e-03 8.322497e-03 4.564216e-03 6.881994e-03 9.017795e-06 5.813227e-03 2.945257e-03 3.126894e-03 1.569629e-02 1.061469e-02 1.518530e-02 
    30.5                2.807930e-03 3.425529e-03 7.953221e-03 4.317991e-03 6.502014e-03 8.540281e-06 5.473725e-03 2.726908e-03 2.896455e-03 1.490504e-02 1.003816e-02 1.441946e-02 
    31.5                2.799850e-03 3.313819e-03 7.520242e-03 4.358042e-03 6.342758e-03 8.171348e-06 5.437722e-03 2.557657e-03 2.729608e-03 1.444966e-02 9.822355e-03 1.396798e-02 
    32.5                2.688210e-03 3.225801e-03 6.938626e-03 4.203143e-03 6.055141e-03 7.558670e-06 5.261869e-03 2.343050e-03 2.507951e-03 1.361610e-02 9.438320e-03 1.317410e-02 
    33.5                2.750222e-03 3.130122e-03 6.532262e-03 4.223645e-03 5.958532e-03 7.271086e-06 5.276328e-03 2.157067e-03 2.324417e-03 1.321403e-02 9.336395e-03 1.279304e-02 
    34.5                2.753183e-03 3.187191e-03 6.482240e-03 4.325428e-03 6.015541e-03 7.175475e-06 5.370780e-03 2.066969e-03 2.237467e-03 1.328686e-02 9.431684e-03 1.285446e-02 
    35.5                2.652824e-03 3.067913e-03 5.807511e-03 4.116823e-03 5.714934e-03 6.378750e-06 5.185676e-03 1.929037e-03 2.088980e-03 1.231936e-02 9.020086e-03 1.193772e-02 
    36.5                2.708607e-03 2.965767e-03 5.560600e-03 4.098461e-03 5.673383e-03 6.030755e-06 5.201343e-03 1.795469e-03 1.954942e-03 1.205875e-02 8.953677e-03 1.167128e-02 
    37.5                2.786791e-03 3.093600e-03 5.567186e-03 4.189574e-03 5.793494e-03 6.190853e-06 5.342675e-03 1.736979e-03 1.897379e-03 1.222203e-02 9.214669e-03 1.188067e-02 
    38.5                2.988740e-03 3.003294e-03 5.295569e-03 4.216245e-03 5.890123e-03 5.853968e-06 5.509233e-03 1.661581e-03 1.823676e-03 1.207969e-02 9.372009e-03 1.173053e-02 
    39.5                2.878454e-03 3.233619e-03 5.124782e-03 4.295502e-03 6.028801e-03 5.702080e-06 5.705871e-03 1.607067e-03 1.771205e-03 1.209423e-02 9.577639e-03 1.172933e-02 
    40.5                2.964600e-03 3.176705e-03 4.962559e-03 4.258422e-03 5.957979e-03 5.517252e-06 5.664312e-03 1.539047e-03 1.698722e-03 1.186892e-02 9.552513e-03 1.157877e-02 
    41.5                3.267571e-03 3.211475e-03 4.830906e-03 4.408398e-03 6.274181e-03 5.367004e-06 6.041536e-03 1.514846e-03 1.680374e-03 1.210737e-02 1.006284e-02 1.181163e-02 
    42.5                3.168595e-03 3.491989e-03 4.544982e-03 4.437487e-03 6.458653e-03 5.099704e-06 6.296636e-03 1.505337e-03 1.671721e-03 1.202776e-02 1.035410e-02 1.173496e-02 
    43.5                3.351208e-03 3.391731e-03 4.251583e-03 4.304107e-03 6.366900e-03 4.889882e-06 6.244987e-03 1.459090e-03 1.618556e-03 1.161572e-02 1.034407e-02 1.145681e-02 
    44.5                3.682923e-03 3.546790e-03 4.291201e-03 4.600739e-03 6.932043e-03 4.942875e-06 6.860570e-03 1.499653e-03 1.671017e-03 1.230507e-02 1.117735e-02 1.206530e-02 
    45.5                3.662423e-03 3.909815e-03 4.224822e-03 4.686101e-03 7.152722e-03 4.994108e-06 7.113854e-03 1.502452e-03 1.673906e-03 1.247988e-02 1.161766e-02 1.232655e-02 
    46.5                3.747844e-03 3.825469e-03 4.022695e-03 4.649101e-03 7.187695e-03 4.813976e-06 7.188624e-03 1.466606e-03 1.635424e-03 1.231566e-02 1.164871e-02 1.215713e-02 
    47.5                3.999921e-03 3.971681e-03 3.898355e-03 4.721182e-03 7.479062e-03 4.850451e-06 7.520606e-03 1.486113e-03 1.657026e-03 1.251365e-02 1.219346e-02 1.244273e-02 
    48.5                4.379438e-03 4.062321e-03 3.739136e-03 4.840321e-03 7.975129e-03 4.891136e-06 8.072666e-03 1.530572e-03 1.707599e-03 1.288570e-02 1.295265e-02 1.279115e-02 
    49.5                4.809473e-03 4.491682e-03 3.734092e-03 5.118613e-03 8.627907e-03 5.140889e-06 8.782285e-03 1.585791e-03 1.772620e-03 1.361693e-02 1.414317e-02 1.367951e-02 
    50.5                5.512188e-03 4.785352e-03 3.685105e-03 5.493030e-03 9.584224e-03 5.432916e-06 9.820122e-03 1.662369e-03 1.865194e-03 1.464056e-02 1.568626e-02 1.473980e-02 
    51.5                6.065582e-03 5.463097e-03 3.580518e-03 5.927767e-03 1.085588e-02 5.751478e-06 1.119506e-02 1.737135e-03 1.959926e-03 1.594272e-02 1.766082e-02 1.601844e-02 
    52.5                6.062727e-03 6.148879e-03 3.339438e-03 6.021809e-03 1.142134e-02 5.852320e-06 1.183329e-02 1.781890e-03 2.009421e-03 1.631069e-02 1.864048e-02 1.652201e-02 
    53.5                6.142844e-03 6.270658e-03 3.061183e-03 5.934495e-03 1.155067e-02 5.788782e-06 1.200734e-02 1.799861e-03 2.023841e-03 1.615112e-02 1.890244e-02 1.647432e-02 
    54.5                5.784642e-03 6.380733e-03 2.797310e-03 5.744512e-03 1.139869e-02 5.546977e-06 1.187615e-02 1.784897e-03 2.000098e-03 1.569110e-02 1.859316e-02 1.597559e-02 
    55.5                5.837851e-03 6.307204e-03 2.616217e-03 5.549605e-03 1.113118e-02 5.491480e-06 1.161047e-02 1.761542e-03 1.966613e-03 1.519636e-02 1.835637e-02 1.570687e-02 
    56.5                5.563846e-03 6.170538e-03 2.405352e-03 5.375707e-03 1.091325e-02 5.182952e-06 1.140596e-02 1.721702e-03 1.918643e-03 1.472776e-02 1.786139e-02 1.512016e-02 
    57.5                5.077981e-03 5.938758e-03 2.134724e-03 4.947942e-03 1.016731e-02 4.862513e-06 1.063863e-02 1.639058e-03 1.817647e-03 1.360251e-02 1.671780e-02 1.405463e-02 
    58.5                4.868917e-03 5.458698e-03 1.857515e-03 4.551909e-03 9.521025e-03 4.478465e-06 9.977558e-03 1.517112e-03 1.680554e-03 1.258682e-02 1.565634e-02 1.303420e-02 
    59.5                4.643189e-03 5.162145e-03 1.636515e-03 4.273404e-03 9.072458e-03 4.146778e-06 9.523370e-03 1.391775e-03 1.544490e-03 1.185571e-02 1.488593e-02 1.228064e-02 
    60.5                4.225218e-03 4.984115e-03 1.434284e-03 3.936259e-03 8.481834e-03 3.882270e-06 8.913520e-03 1.241638e-03 1.381042e-03 1.097981e-02 1.395331e-02 1.142689e-02 
    61.5                3.678920e-03 4.512257e-03 1.154150e-03 3.475705e-03 7.660850e-03 3.376460e-06 8.064881e-03 1.086908e-03 1.209738e-03 9.762963e-03 1.250870e-02 1.009622e-02 
    62.5                3.007648e-03 4.163717e-03 9.290037e-04 2.929909e-03 6.544780e-03 2.955080e-06 6.896432e-03 9.285779e-04 1.030801e-03 8.276974e-03 1.081662e-02 8.714929e-03 
    63.5                2.457688e-03 3.401428e-03 6.962151e-04 2.363293e-03 5.354653e-03 2.391113e-06 5.649443e-03 7.648364e-04 8.468924e-04 6.703537e-03 8.844673e-03 7.077646e-03 
    64.5                1.966438e-03 2.800436e-03 5.343682e-04 1.896537e-03 4.340367e-03 1.940163e-06 4.582349e-03 6.059702e-04 6.708746e-04 5.400962e-03 7.184718e-03 5.723856e-03 
    65.5                1.498552e-03 2.225029e-03 3.794659e-04 1.470365e-03 3.421758e-03 1.482100e-06 3.616992e-03 4.566878e-04 5.068036e-04 4.211747e-03 5.636989e-03 4.448553e-03 
    66.5                1.066385e-03 1.785621e-03 2.616490e-04 1.100062e-03 2.598346e-03 1.136718e-06 2.749566e-03 3.267766e-04 3.639663e-04 3.168626e-03 4.298632e-03 3.377579e-03 
    67.5                6.825882e-04 1.308995e-03 1.610925e-04 7.464264e-04 1.794390e-03 7.886534e-07 1.900798e-03 2.121316e-04 2.371617e-04 2.165756e-03 2.986806e-03 2.336633e-03 
    68.5                3.835888e-04 8.789197e-04 8.718049e-05 4.617973e-04 1.132352e-03 4.987645e-07 1.201098e-03 1.215052e-04 1.369201e-04 1.349004e-03 1.889787e-03 1.468218e-03 
    69.5                1.695192e-04 5.374263e-04 4.141061e-05 2.481794e-04 6.179668e-04 2.802610e-07 6.566494e-04 5.878016e-05 6.698538e-05 7.274456e-04 1.044769e-03 8.116853e-04 
    70.5                4.345611e-05 2.689097e-04 1.535562e-05 1.030992e-04 2.601575e-04 1.292385e-07 2.767639e-04 2.213102e-05 2.547575e-05 3.026592e-04 4.521459e-04 3.533096e-04 
    71.5                5.766484e-06 9.687816e-05 4.216097e-06 2.767501e-05 6.975464e-05 4.681420e-08 7.439967e-05 5.564491e-06 6.430813e-06 8.093642e-05 1.364702e-04 1.119567e-04 
    72.5                1.267600e-07 1.688312e-05 5.056996e-07 3.728838e-06 9.521145e-06 8.967924e-09 1.021464e-05 7.810502e-07 8.947036e-07 1.090478e-05 2.117266e-05 1.804212e-05 
    73.5                0.000000e+00 1.283311e-06 1.366480e-08 1.729544e-07 4.547208e-07 8.117172e-10 4.952506e-07 3.188864e-08 3.712405e-08 5.068855e-07 1.408674e-06 1.305821e-06 
    74.5                0.000000e+00 0.000000e+00 0.000000e+00 0.000000e+00 0.000000e+00 0.000000e+00 0.000000e+00 0.000000e+00 0.000000e+00 0.000000e+00 0.000000e+00 0.000000e+00 
    75.5                0.000000e+00 0.000000e+00 0.000000e+00 0.000000e+00 0.000000e+00 0.000000e+00 0.000000e+00 0.000000e+00 0.000000e+00 0.000000e+00 0.000000e+00 0.000000e+00 
    76.5                0.000000e+00 0.000000e+00 0.000000e+00 0.000000e+00 0.000000e+00 0.000000e+00 0.000000e+00 0.000000e+00 0.000000e+00 0.000000e+00 0.000000e+00 0.000000e+00 
    77.5                0.000000e+00 0.000000e+00 0.000000e+00 0.000000e+00 0.000000e+00 0.000000e+00 0.000000e+00 0.000000e+00 0.000000e+00 0.000000e+00 0.000000e+00 0.000000e+00 
    78.5                0.000000e+00 0.000000e+00 0.000000e+00 0.000000e+00 0.000000e+00 0.000000e+00 0.000000e+00 0.000000e+00 0.000000e+00 0.000000e+00 0.000000e+00 0.000000e+00 
    79.5                0.000000e+00 0.000000e+00 0.000000e+00 0.000000e+00 0.000000e+00 0.000000e+00 0.000000e+00 0.000000e+00 0.000000e+00 0.000000e+00 0.000000e+00 0.000000e+00 


