# 80 rows of flux data
# 12 columns of flux data
# 
# total cross-sectional flux  1.119500e+00 /m^2/yr
#
#                             +x ram      -x wake      +y port -y starboard    +z zenith     -z nadir        Earth          Sun     anti-Sun      rot (x)      rot (y)      rot (z) 
# average speed (km/s)         37.12        37.12        34.94        28.32        35.96        31.61        37.15        27.54        27.54        33.30        36.54        33.64 
# total flux (#/m2/yr)  2.512506e-01 2.510033e-01 3.010415e-01 3.646214e-01 5.153313e-01 4.064638e-04 2.507287e-01 1.849724e-01 1.849752e-01 9.314253e-01 8.020381e-01 9.085921e-01 
# velocity (km/s)
     0.5                0.000000e+00 0.000000e+00 0.000000e+00 0.000000e+00 0.000000e+00 0.000000e+00 0.000000e+00 0.000000e+00 0.000000e+00 0.000000e+00 0.000000e+00 0.000000e+00 
     1.5                0.000000e+00 0.000000e+00 0.000000e+00 0.000000e+00 0.000000e+00 0.000000e+00 0.000000e+00 0.000000e+00 0.000000e+00 0.000000e+00 0.000000e+00 0.000000e+00 
     2.5                9.120388e-05 9.199049e-05 6.022321e-05 9.357860e-05 1.073298e-04 9.482421e-08 9.080883e-05 7.526788e-05 7.558004e-05 2.086423e-04 2.277312e-04 2.644627e-04 
     3.5                4.317534e-04 4.325296e-04 3.147560e-04 3.669043e-04 6.834831e-04 4.606676e-07 4.295449e-04 3.864472e-04 3.862070e-04 1.086043e-03 1.215978e-03 1.202427e-03 
     4.5                9.545038e-04 9.538083e-04 8.459930e-04 8.067149e-04 1.784639e-03 9.683715e-07 9.493387e-04 9.542098e-04 9.543977e-04 2.718422e-03 2.900479e-03 2.772100e-03 
     5.5                1.539876e-03 1.537772e-03 1.537868e-03 1.417349e-03 3.050746e-03 1.655909e-06 1.530771e-03 1.681622e-03 1.681799e-03 4.739442e-03 4.815792e-03 4.695042e-03 
     6.5                2.146630e-03 2.142642e-03 2.325160e-03 2.270486e-03 4.412921e-03 2.513078e-06 2.133859e-03 2.468293e-03 2.468777e-03 7.098171e-03 6.842764e-03 6.934593e-03 
     7.5                2.682178e-03 2.678252e-03 3.045048e-03 3.262705e-03 5.605922e-03 3.466605e-06 2.666365e-03 3.171103e-03 3.171532e-03 9.396291e-03 8.622937e-03 9.118914e-03 
     8.5                3.142109e-03 3.136814e-03 3.735634e-03 4.257762e-03 6.706067e-03 4.400434e-06 3.124134e-03 3.797261e-03 3.798279e-03 1.158765e-02 1.022008e-02 1.118191e-02 
     9.5                3.565586e-03 3.559975e-03 4.303895e-03 5.285729e-03 7.625314e-03 5.384095e-06 3.545475e-03 4.365460e-03 4.366208e-03 1.358498e-02 1.160587e-02 1.311822e-02 
    10.5                3.873083e-03 3.865941e-03 4.798483e-03 6.297976e-03 8.393035e-03 6.230182e-06 3.851771e-03 4.823835e-03 4.824878e-03 1.539046e-02 1.269751e-02 1.480435e-02 
    11.5                4.234978e-03 4.228113e-03 5.312126e-03 7.552519e-03 9.272590e-03 7.373469e-06 4.212333e-03 5.370021e-03 5.370831e-03 1.748596e-02 1.396420e-02 1.681494e-02 
    12.5                4.489709e-03 4.482069e-03 5.762438e-03 8.538575e-03 9.894830e-03 8.282856e-06 4.465535e-03 5.799057e-03 5.799650e-03 1.913253e-02 1.485686e-02 1.834973e-02 
    13.5                4.585600e-03 4.577167e-03 6.039677e-03 9.492687e-03 1.038069e-02 8.780624e-06 4.563654e-03 5.960436e-03 5.961582e-03 2.046875e-02 1.540197e-02 1.956328e-02 
    14.5                4.568923e-03 4.562397e-03 5.905965e-03 1.001314e-02 1.028938e-02 9.297611e-06 4.547447e-03 5.976310e-03 5.977232e-03 2.074295e-02 1.530471e-02 1.987822e-02 
    15.5                4.699424e-03 4.690994e-03 6.222987e-03 1.102515e-02 1.074311e-02 1.014703e-05 4.679278e-03 6.089438e-03 6.090500e-03 2.215581e-02 1.586661e-02 2.118788e-02 
    16.5                4.661558e-03 4.653852e-03 6.200318e-03 1.125338e-02 1.069288e-02 1.032022e-05 4.642220e-03 6.075362e-03 6.076213e-03 2.228499e-02 1.577623e-02 2.131112e-02 
    17.5                4.690146e-03 4.681593e-03 6.237910e-03 1.161793e-02 1.078952e-02 1.061178e-05 4.671088e-03 6.058430e-03 6.059329e-03 2.267612e-02 1.589980e-02 2.167515e-02 
    18.5                4.690554e-03 4.683007e-03 6.265558e-03 1.207453e-02 1.079153e-02 1.103842e-05 4.672993e-03 5.974790e-03 5.975433e-03 2.308605e-02 1.589576e-02 2.207341e-02 
    19.5                4.685345e-03 4.677796e-03 6.280900e-03 1.213877e-02 1.068993e-02 1.161556e-05 4.667524e-03 5.872451e-03 5.873364e-03 2.308020e-02 1.580934e-02 2.209254e-02 
    20.5                4.581181e-03 4.573790e-03 6.268528e-03 1.192726e-02 1.050800e-02 1.132219e-05 4.564738e-03 5.646925e-03 5.647636e-03 2.275687e-02 1.549559e-02 2.172159e-02 
    21.5                4.494642e-03 4.489002e-03 6.105545e-03 1.196741e-02 1.025143e-02 1.130426e-05 4.480098e-03 5.415698e-03 5.416139e-03 2.245053e-02 1.516736e-02 2.147928e-02 
    22.5                4.562606e-03 4.555375e-03 6.266492e-03 1.222648e-02 1.039960e-02 1.147703e-05 4.548756e-03 5.345764e-03 5.346221e-03 2.290124e-02 1.538055e-02 2.189049e-02 
    23.5                4.297537e-03 4.290428e-03 6.039764e-03 1.147452e-02 9.853382e-03 1.081309e-05 4.285364e-03 4.994571e-03 4.995056e-03 2.168687e-02 1.453632e-02 2.068055e-02 
    24.5                4.117522e-03 4.112130e-03 5.726163e-03 1.091127e-02 9.273186e-03 1.061282e-05 4.105798e-03 4.678987e-03 4.679477e-03 2.055042e-02 1.379214e-02 1.964842e-02 
    25.5                4.011096e-03 4.004516e-03 5.716697e-03 1.065698e-02 9.038300e-03 1.039138e-05 3.999716e-03 4.409028e-03 4.409128e-03 2.015729e-02 1.343752e-02 1.925343e-02 
    26.5                3.900447e-03 3.895615e-03 5.479158e-03 1.008896e-02 8.611910e-03 1.026045e-05 3.889134e-03 4.146355e-03 4.146899e-03 1.918777e-02 1.292630e-02 1.837961e-02 
    27.5                3.814083e-03 3.809413e-03 5.502267e-03 9.601091e-03 8.385979e-03 9.888862e-06 3.803705e-03 3.947390e-03 3.947220e-03 1.863329e-02 1.261157e-02 1.782132e-02 
    28.5                3.652752e-03 3.647672e-03 5.281352e-03 9.046285e-03 7.976813e-03 9.267700e-06 3.643204e-03 3.673500e-03 3.673960e-03 1.768319e-02 1.203314e-02 1.691172e-02 
    29.5                3.502312e-03 3.497045e-03 5.130082e-03 8.586996e-03 7.641295e-03 8.742676e-06 3.494271e-03 3.331455e-03 3.331383e-03 1.692043e-02 1.152673e-02 1.616859e-02 
    30.5                3.260254e-03 3.256047e-03 4.774130e-03 8.095480e-03 7.093417e-03 8.435191e-06 3.253834e-03 3.035582e-03 3.035630e-03 1.582190e-02 1.071965e-02 1.512552e-02 
    31.5                3.195738e-03 3.192091e-03 4.677644e-03 7.687617e-03 6.818665e-03 8.182472e-06 3.189099e-03 2.868369e-03 2.868446e-03 1.519427e-02 1.040532e-02 1.455640e-02 
    32.5                3.079007e-03 3.073003e-03 4.614106e-03 7.076402e-03 6.560903e-03 7.382182e-06 3.073227e-03 2.631084e-03 2.631112e-03 1.442229e-02 1.001968e-02 1.380479e-02 
    33.5                3.038034e-03 3.035228e-03 4.458577e-03 6.626967e-03 6.320133e-03 7.181222e-06 3.032564e-03 2.401764e-03 2.401624e-03 1.374787e-02 9.766135e-03 1.319992e-02 
    34.5                3.092704e-03 3.090230e-03 4.586726e-03 6.642333e-03 6.417428e-03 7.127253e-06 3.088162e-03 2.290251e-03 2.290118e-03 1.392166e-02 9.928764e-03 1.336266e-02 
    35.5                2.956753e-03 2.951214e-03 4.417977e-03 5.926084e-03 6.100653e-03 6.314523e-06 2.952382e-03 2.153869e-03 2.153734e-03 1.293591e-02 9.469468e-03 1.241934e-02 
    36.5                2.934200e-03 2.931833e-03 4.219778e-03 5.631708e-03 5.893537e-03 6.116318e-06 2.929763e-03 1.994507e-03 1.994390e-03 1.238008e-02 9.271369e-03 1.195272e-02 
    37.5                2.996685e-03 2.993321e-03 4.413469e-03 5.675259e-03 6.114795e-03 6.054151e-06 2.993568e-03 1.922683e-03 1.922275e-03 1.272279e-02 9.546614e-03 1.222765e-02 
    38.5                2.984027e-03 2.982910e-03 4.255241e-03 5.297925e-03 5.908237e-03 5.855771e-06 2.980974e-03 1.818768e-03 1.818768e-03 1.212370e-02 9.371383e-03 1.175875e-02 
    39.5                3.203509e-03 3.199695e-03 4.485626e-03 5.228890e-03 6.312442e-03 5.709174e-06 3.201518e-03 1.779387e-03 1.779158e-03 1.253874e-02 1.001953e-02 1.216194e-02 
    40.5                3.114281e-03 3.115112e-03 4.371995e-03 5.014439e-03 6.189029e-03 5.496866e-06 3.111574e-03 1.704075e-03 1.703871e-03 1.217675e-02 9.797668e-03 1.176669e-02 
    41.5                3.197360e-03 3.195253e-03 4.411261e-03 4.848453e-03 6.225455e-03 5.359450e-06 3.194847e-03 1.624126e-03 1.623640e-03 1.208143e-02 9.961955e-03 1.176479e-02 
    42.5                3.465957e-03 3.464730e-03 4.635428e-03 4.669184e-03 6.708426e-03 5.152049e-06 3.462799e-03 1.661632e-03 1.661402e-03 1.246471e-02 1.075608e-02 1.218165e-02 
    43.5                3.318929e-03 3.315126e-03 4.387754e-03 4.229960e-03 6.485771e-03 4.755131e-06 3.316851e-03 1.574754e-03 1.574247e-03 1.174738e-02 1.035511e-02 1.143751e-02 
    44.5                3.598133e-03 3.598925e-03 4.491694e-03 4.257984e-03 6.781749e-03 4.995339e-06 3.593753e-03 1.592640e-03 1.592357e-03 1.207938e-02 1.103421e-02 1.193687e-02 
    45.5                3.832020e-03 3.829401e-03 4.854914e-03 4.257589e-03 7.421208e-03 4.936112e-06 3.829277e-03 1.662567e-03 1.662306e-03 1.283982e-02 1.189519e-02 1.254589e-02 
    46.5                3.802840e-03 3.804995e-03 4.706776e-03 4.077452e-03 7.261322e-03 4.843109e-06 3.801137e-03 1.587089e-03 1.586398e-03 1.245551e-02 1.173387e-02 1.224831e-02 
    47.5                3.961798e-03 3.957445e-03 4.780956e-03 3.952924e-03 7.510348e-03 4.735205e-06 3.957948e-03 1.575885e-03 1.575406e-03 1.260738e-02 1.216835e-02 1.247950e-02 
    48.5                4.099434e-03 4.100757e-03 4.737824e-03 3.718902e-03 7.656745e-03 4.893791e-06 4.095767e-03 1.630837e-03 1.630527e-03 1.252568e-02 1.252703e-02 1.251986e-02 
    49.5                4.526568e-03 4.529027e-03 5.041574e-03 3.690398e-03 8.443324e-03 5.007582e-06 4.524158e-03 1.671370e-03 1.670643e-03 1.336736e-02 1.380180e-02 1.339700e-02 
    50.5                4.882965e-03 4.886005e-03 5.265961e-03 3.691158e-03 8.971515e-03 5.395056e-06 4.879096e-03 1.740284e-03 1.739606e-03 1.396442e-02 1.480270e-02 1.413292e-02 
    51.5                5.626950e-03 5.626926e-03 5.732071e-03 3.642095e-03 1.020077e-02 5.891237e-06 5.621584e-03 1.840457e-03 1.840072e-03 1.528486e-02 1.694599e-02 1.567329e-02 
    52.5                6.178568e-03 6.185968e-03 6.133013e-03 3.439864e-03 1.143845e-02 5.903748e-06 6.174784e-03 1.911744e-03 1.910628e-03 1.646319e-02 1.877539e-02 1.679076e-02 
    53.5                6.235737e-03 6.236611e-03 6.018498e-03 3.121169e-03 1.162645e-02 5.826556e-06 6.232200e-03 1.940517e-03 1.940009e-03 1.631300e-02 1.901360e-02 1.662849e-02 
    54.5                6.363596e-03 6.357711e-03 5.993775e-03 2.896900e-03 1.181817e-02 5.652554e-06 6.361052e-03 1.944357e-03 1.944196e-03 1.628774e-02 1.934889e-02 1.669174e-02 
    55.5                6.097547e-03 6.092438e-03 5.785147e-03 2.618495e-03 1.166110e-02 5.355666e-06 6.093766e-03 1.908903e-03 1.908111e-03 1.580004e-02 1.880458e-02 1.592973e-02 
    56.5                6.092439e-03 6.090841e-03 5.600568e-03 2.467340e-03 1.140960e-02 5.252674e-06 6.088388e-03 1.882826e-03 1.882255e-03 1.535137e-02 1.859345e-02 1.569740e-02 
    57.5                5.769125e-03 5.763193e-03 5.335497e-03 2.231212e-03 1.096513e-02 4.803008e-06 5.766073e-03 1.826209e-03 1.825730e-03 1.460828e-02 1.773566e-02 1.482707e-02 
    58.5                5.304604e-03 5.303180e-03 4.816954e-03 1.901968e-03 1.007537e-02 4.448811e-06 5.303010e-03 1.697565e-03 1.696943e-03 1.325692e-02 1.630899e-02 1.349411e-02 
    59.5                5.058510e-03 5.056085e-03 4.486676e-03 1.696400e-03 9.521011e-03 4.148539e-06 5.055223e-03 1.567756e-03 1.567431e-03 1.242113e-02 1.547478e-02 1.272390e-02 
    60.5                4.844064e-03 4.835488e-03 4.273379e-03 1.505472e-03 9.181014e-03 3.836821e-06 4.842161e-03 1.425996e-03 1.425932e-03 1.184613e-02 1.485847e-02 1.211000e-02 
    61.5                4.387934e-03 4.388605e-03 3.793189e-03 1.254467e-03 8.307191e-03 3.523105e-06 4.385703e-03 1.256309e-03 1.255818e-03 1.059844e-02 1.347132e-02 1.087607e-02 
    62.5                3.903671e-03 3.897578e-03 3.401825e-03 9.702996e-04 7.650138e-03 2.854854e-06 3.902705e-03 1.095282e-03 1.094917e-03 9.562583e-03 1.216166e-02 9.624700e-03 
    63.5                3.191152e-03 3.184471e-03 2.736333e-03 7.412477e-04 6.246343e-03 2.323949e-06 3.190427e-03 9.135120e-04 9.133618e-04 7.746727e-03 9.936416e-03 7.807093e-03 
    64.5                2.617025e-03 2.614653e-03 2.229903e-03 5.652725e-04 5.141698e-03 1.867361e-06 2.616704e-03 7.413778e-04 7.411399e-04 6.331026e-03 8.165648e-03 6.380456e-03 
    65.5                2.072989e-03 2.071118e-03 1.749204e-03 4.127492e-04 4.082465e-03 1.477253e-06 2.073008e-03 5.705011e-04 5.703487e-04 4.986784e-03 6.476976e-03 5.026372e-03 
    66.5                1.628182e-03 1.624738e-03 1.371542e-03 2.829026e-04 3.269868e-03 1.093091e-06 1.628377e-03 4.253331e-04 4.251608e-04 3.940670e-03 5.130152e-03 3.928754e-03 
    67.5                1.171326e-03 1.166678e-03 9.873309e-04 1.758238e-04 2.396131e-03 7.415064e-07 1.171709e-03 2.902501e-04 2.902363e-04 2.853147e-03 3.721398e-03 2.814568e-03 
    68.5                7.638944e-04 7.613918e-04 6.467255e-04 9.310792e-05 1.608957e-03 4.605874e-07 7.643816e-04 1.773511e-04 1.772554e-04 1.886632e-03 2.463179e-03 1.830619e-03 
    69.5                4.487793e-04 4.470320e-04 3.843840e-04 4.023125e-05 9.818075e-04 2.373960e-07 4.494481e-04 9.339932e-05 9.337839e-05 1.131147e-03 1.472428e-03 1.072780e-03 
    70.5                2.117619e-04 2.107179e-04 1.873926e-04 1.241955e-05 4.910059e-04 9.498942e-08 2.121810e-04 3.928069e-05 3.926258e-05 5.545638e-04 7.154510e-04 5.068305e-04 
    71.5                6.410658e-05 6.372319e-05 6.558101e-05 1.696373e-06 1.765795e-04 1.828101e-08 6.438262e-05 1.079508e-05 1.079237e-05 1.946988e-04 2.380780e-04 1.576126e-04 
    72.5                9.648125e-06 9.566064e-06 1.127105e-05 5.530050e-08 3.079778e-05 1.660044e-09 9.724774e-06 1.610674e-06 1.611923e-06 3.332720e-05 3.930645e-05 2.440104e-05 
    73.5                4.992173e-07 4.924374e-07 8.523333e-07 0.000000e+00 2.338253e-06 0.000000e+00 5.069828e-07 6.730342e-08 6.731048e-08 2.497195e-06 2.640802e-06 1.408402e-06 
    74.5                0.000000e+00 0.000000e+00 0.000000e+00 0.000000e+00 0.000000e+00 0.000000e+00 0.000000e+00 0.000000e+00 0.000000e+00 0.000000e+00 0.000000e+00 0.000000e+00 
    75.5                0.000000e+00 0.000000e+00 0.000000e+00 0.000000e+00 0.000000e+00 0.000000e+00 0.000000e+00 0.000000e+00 0.000000e+00 0.000000e+00 0.000000e+00 0.000000e+00 
    76.5                0.000000e+00 0.000000e+00 0.000000e+00 0.000000e+00 0.000000e+00 0.000000e+00 0.000000e+00 0.000000e+00 0.000000e+00 0.000000e+00 0.000000e+00 0.000000e+00 
    77.5                0.000000e+00 0.000000e+00 0.000000e+00 0.000000e+00 0.000000e+00 0.000000e+00 0.000000e+00 0.000000e+00 0.000000e+00 0.000000e+00 0.000000e+00 0.000000e+00 
    78.5                0.000000e+00 0.000000e+00 0.000000e+00 0.000000e+00 0.000000e+00 0.000000e+00 0.000000e+00 0.000000e+00 0.000000e+00 0.000000e+00 0.000000e+00 0.000000e+00 
    79.5                0.000000e+00 0.000000e+00 0.000000e+00 0.000000e+00 0.000000e+00 0.000000e+00 0.000000e+00 0.000000e+00 0.000000e+00 0.000000e+00 0.000000e+00 0.000000e+00 


