# 80 rows of flux data
# 12 columns of flux data
# 
# total cross-sectional flux  2.394675e+00 /m^2/yr
#
#                             +x ram      -x wake      +y port -y starboard    +z zenith     -z nadir        Earth          Sun     anti-Sun      rot (x)      rot (y)      rot (z) 
# average speed (km/s)         25.15        24.34        24.75        24.75        20.16        28.88        24.73        25.13        25.13        24.14        24.16        24.76 
# total flux (#/m2/yr)  7.908161e-01 6.764206e-01 7.324906e-01 7.322409e-01 4.330752e-01 3.167534e-03 7.226984e-01 1.051044e+00 1.050963e+00 1.616564e+00 1.619066e+00 2.302754e+00 
# velocity (km/s)
     0.5                0.000000e+00 0.000000e+00 0.000000e+00 0.000000e+00 0.000000e+00 0.000000e+00 0.000000e+00 0.000000e+00 0.000000e+00 0.000000e+00 0.000000e+00 0.000000e+00 
     1.5                0.000000e+00 0.000000e+00 0.000000e+00 0.000000e+00 0.000000e+00 0.000000e+00 0.000000e+00 0.000000e+00 0.000000e+00 0.000000e+00 0.000000e+00 0.000000e+00 
     2.5                0.000000e+00 5.444826e-06 1.207186e-06 1.205806e-06 2.398281e-06 0.000000e+00 1.163084e-06 8.255922e-07 8.182820e-07 3.628395e-06 6.013936e-06 6.214344e-06 
     3.5                7.161591e-06 1.450714e-04 7.333373e-05 7.321500e-05 7.281900e-05 4.872482e-08 7.301556e-05 5.188410e-05 5.187691e-05 1.752171e-04 1.778593e-04 2.351963e-04 
     4.5                1.854852e-04 6.082350e-04 3.897455e-04 3.882041e-04 3.835410e-04 5.227881e-07 3.865951e-04 2.882117e-04 2.877432e-04 9.343991e-04 9.431552e-04 1.234076e-03 
     5.5                7.145514e-04 1.570100e-03 1.196539e-03 1.193432e-03 1.283010e-03 2.032767e-06 1.190459e-03 9.663736e-04 9.658584e-04 2.932309e-03 2.838209e-03 3.673655e-03 
     6.5                2.118584e-03 2.904114e-03 2.555363e-03 2.549153e-03 2.879228e-03 4.954746e-06 2.537570e-03 2.208759e-03 2.208071e-03 6.333746e-03 6.275511e-03 7.953233e-03 
     7.5                3.818354e-03 5.109070e-03 4.467185e-03 4.459845e-03 5.237083e-03 8.396005e-06 4.435215e-03 4.081306e-03 4.079440e-03 1.122718e-02 1.123714e-02 1.402023e-02 
     8.5                6.373641e-03 7.565610e-03 7.112780e-03 7.106760e-03 8.162947e-03 1.232309e-05 7.069819e-03 6.690379e-03 6.689909e-03 1.775030e-02 1.750094e-02 2.211320e-02 
     9.5                9.673461e-03 9.610974e-03 9.851062e-03 9.850137e-03 1.142124e-02 1.723522e-05 9.791920e-03 9.848824e-03 9.847985e-03 2.465631e-02 2.432569e-02 3.062048e-02 
    10.5                1.291736e-02 1.163516e-02 1.222916e-02 1.223565e-02 1.478554e-02 2.184639e-05 1.214171e-02 1.339049e-02 1.339073e-02 3.103547e-02 3.115934e-02 3.849741e-02 
    11.5                1.516227e-02 1.346428e-02 1.439123e-02 1.439066e-02 1.751774e-02 2.661574e-05 1.427367e-02 1.689721e-02 1.689593e-02 3.668563e-02 3.662187e-02 4.508926e-02 
    12.5                1.740692e-02 1.473569e-02 1.600657e-02 1.600979e-02 1.926683e-02 3.135672e-05 1.585740e-02 2.005501e-02 2.005385e-02 4.080224e-02 4.090609e-02 5.039673e-02 
    13.5                1.878910e-02 1.676106e-02 1.761542e-02 1.762166e-02 2.055816e-02 3.591607e-05 1.744137e-02 2.314875e-02 2.314627e-02 4.456280e-02 4.484600e-02 5.558713e-02 
    14.5                2.053210e-02 1.850976e-02 1.950188e-02 1.950677e-02 2.140837e-02 4.099096e-05 1.930415e-02 2.644182e-02 2.644199e-02 4.847863e-02 4.851185e-02 6.130011e-02 
    15.5                2.235784e-02 2.020435e-02 2.127323e-02 2.127100e-02 2.164829e-02 4.764913e-05 2.104010e-02 2.962584e-02 2.962512e-02 5.180480e-02 5.180466e-02 6.684890e-02 
    16.5                2.434070e-02 2.172244e-02 2.299463e-02 2.299266e-02 2.182452e-02 5.476171e-05 2.273498e-02 3.264344e-02 3.264158e-02 5.501760e-02 5.509869e-02 7.229231e-02 
    17.5                2.581580e-02 2.320501e-02 2.443684e-02 2.443441e-02 2.152189e-02 6.136535e-05 2.415089e-02 3.537273e-02 3.537210e-02 5.744273e-02 5.755684e-02 7.688380e-02 
    18.5                2.718609e-02 2.431579e-02 2.576239e-02 2.575722e-02 2.094085e-02 6.792118e-05 2.545329e-02 3.783583e-02 3.783333e-02 5.947185e-02 5.944603e-02 8.091564e-02 
    19.5                2.850447e-02 2.526592e-02 2.682490e-02 2.682181e-02 2.044666e-02 7.567374e-05 2.649487e-02 3.990716e-02 3.990556e-02 6.113594e-02 6.125921e-02 8.436416e-02 
    20.5                2.930421e-02 2.611892e-02 2.763073e-02 2.762441e-02 1.959286e-02 8.385999e-05 2.727707e-02 4.145777e-02 4.145738e-02 6.216983e-02 6.231582e-02 8.692733e-02 
    21.5                2.999762e-02 2.730835e-02 2.859980e-02 2.859033e-02 1.874303e-02 9.258361e-05 2.822489e-02 4.312650e-02 4.312424e-02 6.348284e-02 6.357172e-02 8.992397e-02 
    22.5                3.112145e-02 2.803707e-02 2.961123e-02 2.960103e-02 1.825287e-02 1.000636e-04 2.922121e-02 4.478366e-02 4.478129e-02 6.512127e-02 6.507361e-02 9.296838e-02 
    23.5                3.200616e-02 2.843596e-02 3.018190e-02 3.017411e-02 1.736210e-02 1.064689e-04 2.977959e-02 4.577735e-02 4.577653e-02 6.568669e-02 6.577012e-02 9.487145e-02 
    24.5                3.228344e-02 2.872850e-02 3.046655e-02 3.045612e-02 1.635625e-02 1.128950e-04 3.005191e-02 4.625038e-02 4.624828e-02 6.572128e-02 6.579972e-02 9.576723e-02 
    25.5                3.253080e-02 2.877993e-02 3.064918e-02 3.063723e-02 1.521380e-02 1.197977e-04 3.022845e-02 4.647269e-02 4.647114e-02 6.552064e-02 6.554480e-02 9.628801e-02 
    26.5                3.258861e-02 2.823723e-02 3.041255e-02 3.040100e-02 1.401209e-02 1.256203e-04 2.998960e-02 4.606384e-02 4.606051e-02 6.453945e-02 6.453898e-02 9.553640e-02 
    27.5                3.207832e-02 2.769249e-02 2.979585e-02 2.978343e-02 1.278206e-02 1.297484e-04 2.937163e-02 4.510387e-02 4.510199e-02 6.282187e-02 6.300508e-02 9.373738e-02 
    28.5                3.124880e-02 2.696747e-02 2.909954e-02 2.908290e-02 1.159944e-02 1.334116e-04 2.868036e-02 4.386035e-02 4.385743e-02 6.100001e-02 6.102244e-02 9.141892e-02 
    29.5                3.049120e-02 2.594395e-02 2.818601e-02 2.816816e-02 1.042415e-02 1.373069e-04 2.777287e-02 4.235717e-02 4.235425e-02 5.875865e-02 5.883894e-02 8.858150e-02 
    30.5                2.932788e-02 2.472361e-02 2.699610e-02 2.697660e-02 9.230355e-03 1.395534e-04 2.659267e-02 4.040722e-02 4.040441e-02 5.599744e-02 5.606774e-02 8.484163e-02 
    31.5                2.798714e-02 2.335724e-02 2.562716e-02 2.561019e-02 8.014322e-03 1.409879e-04 2.523756e-02 3.817603e-02 3.817269e-02 5.289573e-02 5.299614e-02 8.056634e-02 
    32.5                2.643827e-02 2.166077e-02 2.404470e-02 2.402919e-02 6.857504e-03 1.408163e-04 2.367550e-02 3.556457e-02 3.556206e-02 4.941749e-02 4.943195e-02 7.553491e-02 
    33.5                2.469380e-02 1.962966e-02 2.212157e-02 2.210983e-02 5.804966e-03 1.374812e-04 2.177793e-02 3.251847e-02 3.251439e-02 4.530930e-02 4.539410e-02 6.955166e-02 
    34.5                2.249406e-02 1.765898e-02 2.001030e-02 1.999850e-02 4.828759e-03 1.319160e-04 1.969312e-02 2.922516e-02 2.922098e-02 4.085985e-02 4.099900e-02 6.295998e-02 
    35.5                2.026122e-02 1.569005e-02 1.790727e-02 1.789653e-02 3.913004e-03 1.261485e-04 1.761679e-02 2.595954e-02 2.595680e-02 3.645539e-02 3.659489e-02 5.635714e-02 
    36.5                1.803176e-02 1.373620e-02 1.584081e-02 1.582684e-02 3.083496e-03 1.200723e-04 1.557382e-02 2.275415e-02 2.274985e-02 3.214627e-02 3.223959e-02 4.982122e-02 
    37.5                1.588569e-02 1.176534e-02 1.377459e-02 1.376409e-02 2.381975e-03 1.123725e-04 1.353643e-02 1.961504e-02 1.961232e-02 2.788356e-02 2.798985e-02 4.334370e-02 
    38.5                1.368992e-02 9.796877e-03 1.170095e-02 1.169439e-02 1.788397e-03 1.025168e-04 1.149507e-02 1.650548e-02 1.650255e-02 2.363519e-02 2.372230e-02 3.682107e-02 
    39.5                1.153770e-02 7.835937e-03 9.638477e-03 9.634406e-03 1.290361e-03 9.106163e-05 9.464980e-03 1.346522e-02 1.346180e-02 1.943301e-02 1.952888e-02 3.035218e-02 
    40.5                9.369795e-03 5.967504e-03 7.610809e-03 7.608686e-03 8.841865e-04 7.750847e-05 7.469613e-03 1.053134e-02 1.052919e-02 1.532063e-02 1.543424e-02 2.399947e-02 
    41.5                7.278083e-03 4.382291e-03 5.748288e-03 5.748425e-03 5.729804e-04 6.341191e-05 5.637928e-03 7.894443e-03 7.891453e-03 1.155692e-02 1.171723e-02 1.818707e-02 
    42.5                5.395119e-03 3.055869e-03 4.165166e-03 4.167237e-03 3.502804e-04 4.957441e-05 4.085076e-03 5.658280e-03 5.656096e-03 8.366190e-03 8.482448e-03 1.318178e-02 
    43.5                3.851446e-03 1.909958e-03 2.831049e-03 2.834453e-03 2.006185e-04 3.625892e-05 2.776946e-03 3.808565e-03 3.807253e-03 5.683339e-03 5.777826e-03 8.975123e-03 
    44.5                2.532190e-03 1.041334e-03 1.728864e-03 1.730091e-03 1.039318e-04 2.395797e-05 1.693505e-03 2.317391e-03 2.316458e-03 3.467641e-03 3.581120e-03 5.523357e-03 
    45.5                1.463770e-03 4.512708e-04 9.078866e-04 9.086228e-04 4.675770e-05 1.358474e-05 8.886076e-04 1.216398e-03 1.215434e-03 1.820215e-03 1.918069e-03 2.930465e-03 
    46.5                7.046606e-04 1.384924e-04 3.785748e-04 3.792977e-04 1.747110e-05 6.220606e-06 3.699904e-04 5.164475e-04 5.162743e-04 7.592312e-04 8.441569e-04 1.257147e-03 
    47.5                2.486218e-04 2.849040e-05 1.147075e-04 1.148153e-04 4.955667e-06 2.134884e-06 1.115730e-04 1.619656e-04 1.618951e-04 2.299197e-04 2.773587e-04 3.980454e-04 
    48.5                6.147201e-05 2.759700e-06 2.378751e-05 2.374919e-05 9.924230e-07 5.164443e-07 2.293804e-05 3.539960e-05 3.538562e-05 4.761786e-05 6.427405e-05 8.779497e-05 
    49.5                8.706529e-06 3.234546e-08 2.637819e-06 2.617540e-06 1.170310e-07 7.061791e-08 2.499398e-06 4.403264e-06 4.397450e-06 5.266348e-06 8.742491e-06 1.097930e-05 
    50.5                2.555143e-07 0.000000e+00 5.227311e-08 5.159254e-08 2.921789e-09 2.022899e-09 4.803484e-08 1.153367e-07 1.125259e-07 1.042300e-07 2.555756e-07 2.853742e-07 
    51.5                0.000000e+00 0.000000e+00 0.000000e+00 0.000000e+00 0.000000e+00 0.000000e+00 0.000000e+00 0.000000e+00 0.000000e+00 0.000000e+00 0.000000e+00 0.000000e+00 
    52.5                0.000000e+00 0.000000e+00 0.000000e+00 0.000000e+00 0.000000e+00 0.000000e+00 0.000000e+00 0.000000e+00 0.000000e+00 0.000000e+00 0.000000e+00 0.000000e+00 
    53.5                0.000000e+00 0.000000e+00 0.000000e+00 0.000000e+00 0.000000e+00 0.000000e+00 0.000000e+00 0.000000e+00 0.000000e+00 0.000000e+00 0.000000e+00 0.000000e+00 
    54.5                0.000000e+00 0.000000e+00 0.000000e+00 0.000000e+00 0.000000e+00 0.000000e+00 0.000000e+00 0.000000e+00 0.000000e+00 0.000000e+00 0.000000e+00 0.000000e+00 
    55.5                0.000000e+00 0.000000e+00 0.000000e+00 0.000000e+00 0.000000e+00 0.000000e+00 0.000000e+00 0.000000e+00 0.000000e+00 0.000000e+00 0.000000e+00 0.000000e+00 
    56.5                0.000000e+00 0.000000e+00 0.000000e+00 0.000000e+00 0.000000e+00 0.000000e+00 0.000000e+00 0.000000e+00 0.000000e+00 0.000000e+00 0.000000e+00 0.000000e+00 
    57.5                0.000000e+00 0.000000e+00 0.000000e+00 0.000000e+00 0.000000e+00 0.000000e+00 0.000000e+00 0.000000e+00 0.000000e+00 0.000000e+00 0.000000e+00 0.000000e+00 
    58.5                0.000000e+00 0.000000e+00 0.000000e+00 0.000000e+00 0.000000e+00 0.000000e+00 0.000000e+00 0.000000e+00 0.000000e+00 0.000000e+00 0.000000e+00 0.000000e+00 
    59.5                0.000000e+00 0.000000e+00 0.000000e+00 0.000000e+00 0.000000e+00 0.000000e+00 0.000000e+00 0.000000e+00 0.000000e+00 0.000000e+00 0.000000e+00 0.000000e+00 
    60.5                0.000000e+00 0.000000e+00 0.000000e+00 0.000000e+00 0.000000e+00 0.000000e+00 0.000000e+00 0.000000e+00 0.000000e+00 0.000000e+00 0.000000e+00 0.000000e+00 
    61.5                0.000000e+00 0.000000e+00 0.000000e+00 0.000000e+00 0.000000e+00 0.000000e+00 0.000000e+00 0.000000e+00 0.000000e+00 0.000000e+00 0.000000e+00 0.000000e+00 
    62.5                0.000000e+00 0.000000e+00 0.000000e+00 0.000000e+00 0.000000e+00 0.000000e+00 0.000000e+00 0.000000e+00 0.000000e+00 0.000000e+00 0.000000e+00 0.000000e+00 
    63.5                0.000000e+00 0.000000e+00 0.000000e+00 0.000000e+00 0.000000e+00 0.000000e+00 0.000000e+00 0.000000e+00 0.000000e+00 0.000000e+00 0.000000e+00 0.000000e+00 
    64.5                0.000000e+00 0.000000e+00 0.000000e+00 0.000000e+00 0.000000e+00 0.000000e+00 0.000000e+00 0.000000e+00 0.000000e+00 0.000000e+00 0.000000e+00 0.000000e+00 
    65.5                0.000000e+00 0.000000e+00 0.000000e+00 0.000000e+00 0.000000e+00 0.000000e+00 0.000000e+00 0.000000e+00 0.000000e+00 0.000000e+00 0.000000e+00 0.000000e+00 
    66.5                0.000000e+00 0.000000e+00 0.000000e+00 0.000000e+00 0.000000e+00 0.000000e+00 0.000000e+00 0.000000e+00 0.000000e+00 0.000000e+00 0.000000e+00 0.000000e+00 
    67.5                0.000000e+00 0.000000e+00 0.000000e+00 0.000000e+00 0.000000e+00 0.000000e+00 0.000000e+00 0.000000e+00 0.000000e+00 0.000000e+00 0.000000e+00 0.000000e+00 
    68.5                0.000000e+00 0.000000e+00 0.000000e+00 0.000000e+00 0.000000e+00 0.000000e+00 0.000000e+00 0.000000e+00 0.000000e+00 0.000000e+00 0.000000e+00 0.000000e+00 
    69.5                0.000000e+00 0.000000e+00 0.000000e+00 0.000000e+00 0.000000e+00 0.000000e+00 0.000000e+00 0.000000e+00 0.000000e+00 0.000000e+00 0.000000e+00 0.000000e+00 
    70.5                0.000000e+00 0.000000e+00 0.000000e+00 0.000000e+00 0.000000e+00 0.000000e+00 0.000000e+00 0.000000e+00 0.000000e+00 0.000000e+00 0.000000e+00 0.000000e+00 
    71.5                0.000000e+00 0.000000e+00 0.000000e+00 0.000000e+00 0.000000e+00 0.000000e+00 0.000000e+00 0.000000e+00 0.000000e+00 0.000000e+00 0.000000e+00 0.000000e+00 
    72.5                0.000000e+00 0.000000e+00 0.000000e+00 0.000000e+00 0.000000e+00 0.000000e+00 0.000000e+00 0.000000e+00 0.000000e+00 0.000000e+00 0.000000e+00 0.000000e+00 
    73.5                0.000000e+00 0.000000e+00 0.000000e+00 0.000000e+00 0.000000e+00 0.000000e+00 0.000000e+00 0.000000e+00 0.000000e+00 0.000000e+00 0.000000e+00 0.000000e+00 
    74.5                0.000000e+00 0.000000e+00 0.000000e+00 0.000000e+00 0.000000e+00 0.000000e+00 0.000000e+00 0.000000e+00 0.000000e+00 0.000000e+00 0.000000e+00 0.000000e+00 
    75.5                0.000000e+00 0.000000e+00 0.000000e+00 0.000000e+00 0.000000e+00 0.000000e+00 0.000000e+00 0.000000e+00 0.000000e+00 0.000000e+00 0.000000e+00 0.000000e+00 
    76.5                0.000000e+00 0.000000e+00 0.000000e+00 0.000000e+00 0.000000e+00 0.000000e+00 0.000000e+00 0.000000e+00 0.000000e+00 0.000000e+00 0.000000e+00 0.000000e+00 
    77.5                0.000000e+00 0.000000e+00 0.000000e+00 0.000000e+00 0.000000e+00 0.000000e+00 0.000000e+00 0.000000e+00 0.000000e+00 0.000000e+00 0.000000e+00 0.000000e+00 
    78.5                0.000000e+00 0.000000e+00 0.000000e+00 0.000000e+00 0.000000e+00 0.000000e+00 0.000000e+00 0.000000e+00 0.000000e+00 0.000000e+00 0.000000e+00 0.000000e+00 
    79.5                0.000000e+00 0.000000e+00 0.000000e+00 0.000000e+00 0.000000e+00 0.000000e+00 0.000000e+00 0.000000e+00 0.000000e+00 0.000000e+00 0.000000e+00 0.000000e+00 


