# 80 rows of flux data
# 12 columns of flux data
# 
# total cross-sectional flux  1.047808e+00 /m^2/yr
#
#                             +x ram      -x wake      +y port -y starboard    +z zenith     -z nadir        Earth          Sun     anti-Sun      rot (x)      rot (y)      rot (z) 
# average speed (km/s)         38.30        37.02        28.84        42.78        33.47        39.66        39.49        27.75        28.19        33.88        35.45        35.48 
# total flux (#/m2/yr)  2.175899e-01 2.589871e-01 3.618173e-01 1.908655e-01 5.344882e-01 3.246491e-04 3.650862e-01 1.675237e-01 1.716569e-01 8.671894e-01 7.932676e-01 8.043428e-01 
# velocity (km/s)
     0.5                0.000000e+00 0.000000e+00 0.000000e+00 0.000000e+00 0.000000e+00 0.000000e+00 0.000000e+00 0.000000e+00 0.000000e+00 0.000000e+00 0.000000e+00 0.000000e+00 
     1.5                0.000000e+00 0.000000e+00 0.000000e+00 0.000000e+00 0.000000e+00 0.000000e+00 0.000000e+00 0.000000e+00 0.000000e+00 0.000000e+00 0.000000e+00 0.000000e+00 
     2.5                1.187640e-04 3.004601e-05 8.294645e-05 8.090601e-05 1.552166e-04 6.748535e-08 1.372600e-04 7.796690e-05 8.299942e-05 2.519825e-04 2.404257e-04 2.457088e-04 
     3.5                4.755145e-04 3.529068e-04 3.707883e-04 4.482249e-04 7.805514e-04 4.224873e-07 7.369514e-04 4.175973e-04 4.468987e-04 1.269453e-03 1.268393e-03 1.295365e-03 
     4.5                8.474376e-04 9.609762e-04 8.182179e-04 9.453135e-04 1.681249e-03 1.088612e-06 1.551692e-03 9.492584e-04 9.869259e-04 2.737524e-03 2.752744e-03 2.806642e-03 
     5.5                1.260791e-03 1.618780e-03 1.422724e-03 1.427072e-03 2.734534e-03 1.811718e-06 2.392240e-03 1.585126e-03 1.622808e-03 4.436165e-03 4.419113e-03 4.493260e-03 
     6.5                1.636887e-03 2.294787e-03 2.228899e-03 1.858287e-03 3.933761e-03 2.528760e-06 3.194044e-03 2.239337e-03 2.263133e-03 6.360156e-03 6.190979e-03 6.288009e-03 
     7.5                2.002679e-03 2.864256e-03 3.147798e-03 2.167057e-03 5.143700e-03 3.097630e-06 3.861553e-03 2.835432e-03 2.845453e-03 8.271116e-03 7.877092e-03 7.982137e-03 
     8.5                2.343177e-03 3.381709e-03 4.080055e-03 2.422152e-03 6.305218e-03 3.635241e-06 4.442032e-03 3.388039e-03 3.385901e-03 1.010802e-02 9.462335e-03 9.583688e-03 
     9.5                2.600957e-03 3.799483e-03 4.998543e-03 2.601836e-03 7.394712e-03 3.979648e-06 4.911812e-03 3.863215e-03 3.863168e-03 1.179937e-02 1.085101e-02 1.097471e-02 
    10.5                2.903900e-03 4.133468e-03 5.935629e-03 2.709188e-03 8.429973e-03 4.295934e-06 5.282628e-03 4.307404e-03 4.320041e-03 1.340924e-02 1.216736e-02 1.229594e-02 
    11.5                3.130457e-03 4.504246e-03 7.060069e-03 2.808508e-03 9.637850e-03 4.587390e-06 5.652754e-03 4.764254e-03 4.790536e-03 1.526363e-02 1.359637e-02 1.373508e-02 
    12.5                3.303590e-03 4.770743e-03 7.946197e-03 2.803206e-03 1.051580e-02 4.723631e-06 5.866255e-03 5.085910e-03 5.118439e-03 1.661883e-02 1.462606e-02 1.476706e-02 
    13.5                3.338745e-03 4.929063e-03 8.759174e-03 2.729156e-03 1.126604e-02 4.646196e-06 5.894078e-03 5.216481e-03 5.249295e-03 1.769394e-02 1.539164e-02 1.552377e-02 
    14.5                3.458980e-03 4.831346e-03 9.216544e-03 2.657540e-03 1.166112e-02 4.520281e-06 5.870452e-03 5.265372e-03 5.303329e-03 1.825783e-02 1.573494e-02 1.586071e-02 
    15.5                3.521740e-03 4.985140e-03 1.008350e-02 2.577137e-03 1.244354e-02 4.545165e-06 5.929838e-03 5.380503e-03 5.418012e-03 1.942678e-02 1.653173e-02 1.666272e-02 
    16.5                3.570957e-03 4.940323e-03 1.032266e-02 2.523272e-03 1.261874e-02 4.565546e-06 5.885238e-03 5.397970e-03 5.434889e-03 1.969176e-02 1.667224e-02 1.681328e-02 
    17.5                3.582678e-03 4.955602e-03 1.068754e-02 2.433282e-03 1.289868e-02 4.478987e-06 5.846028e-03 5.365231e-03 5.401852e-03 2.010897e-02 1.691853e-02 1.705597e-02 
    18.5                3.644534e-03 4.921490e-03 1.107229e-02 2.338431e-03 1.319258e-02 4.371113e-06 5.797132e-03 5.324811e-03 5.362053e-03 2.054087e-02 1.717071e-02 1.730519e-02 
    19.5                3.627510e-03 4.880598e-03 1.117886e-02 2.273526e-03 1.322962e-02 4.327711e-06 5.753357e-03 5.211580e-03 5.251126e-03 2.062037e-02 1.713057e-02 1.727087e-02 
    20.5                3.570486e-03 4.803917e-03 1.112609e-02 2.094242e-03 1.300458e-02 4.162302e-06 5.527225e-03 5.024773e-03 5.060399e-03 2.027535e-02 1.682341e-02 1.696107e-02 
    21.5                3.619519e-03 4.652055e-03 1.124440e-02 2.012026e-03 1.303651e-02 4.107570e-06 5.444468e-03 4.886545e-03 4.921047e-03 2.033758e-02 1.676392e-02 1.690761e-02 
    22.5                3.543698e-03 4.718511e-03 1.147114e-02 1.922411e-03 1.317736e-02 4.001193e-06 5.401110e-03 4.761768e-03 4.795982e-03 2.056321e-02 1.686055e-02 1.700168e-02 
    23.5                3.400967e-03 4.494629e-03 1.087554e-02 1.776194e-03 1.245071e-02 3.732129e-06 5.077622e-03 4.457682e-03 4.489348e-03 1.943782e-02 1.596557e-02 1.609657e-02 
    24.5                3.318344e-03 4.239616e-03 1.044644e-02 1.659213e-03 1.190516e-02 3.605018e-06 4.853257e-03 4.194075e-03 4.224010e-03 1.862722e-02 1.525042e-02 1.538296e-02 
    25.5                3.230667e-03 4.142118e-03 1.023485e-02 1.554156e-03 1.160319e-02 3.372693e-06 4.681541e-03 3.964226e-03 3.993116e-03 1.814944e-02 1.484165e-02 1.496500e-02 
    26.5                3.203526e-03 3.967864e-03 9.865477e-03 1.482241e-03 1.116303e-02 3.255976e-06 4.552637e-03 3.756192e-03 3.784802e-03 1.751552e-02 1.431222e-02 1.443603e-02 
    27.5                3.076357e-03 3.902429e-03 9.485661e-03 1.387447e-03 1.068725e-02 3.199240e-06 4.391651e-03 3.551030e-03 3.577523e-03 1.683599e-02 1.375463e-02 1.388116e-02 
    28.5                3.006270e-03 3.724129e-03 9.097706e-03 1.267617e-03 1.018688e-02 3.053302e-06 4.178839e-03 3.286696e-03 3.311935e-03 1.609484e-02 1.314917e-02 1.327204e-02 
    29.5                2.792484e-03 3.585894e-03 8.632793e-03 1.175779e-03 9.610117e-03 3.195736e-06 3.947305e-03 2.982095e-03 3.006160e-03 1.525184e-02 1.241844e-02 1.256040e-02 
    30.5                2.719622e-03 3.321030e-03 8.233615e-03 1.078440e-03 9.129101e-03 2.934049e-06 3.702503e-03 2.763548e-03 2.786333e-03 1.448195e-02 1.177056e-02 1.190044e-02 
    31.5                2.708274e-03 3.211455e-03 8.007370e-03 9.916576e-04 8.813526e-03 2.906908e-06 3.602143e-03 2.598706e-03 2.619599e-03 1.405936e-02 1.140685e-02 1.154135e-02 
    32.5                2.603123e-03 3.126059e-03 7.513754e-03 9.607120e-04 8.271772e-03 3.098580e-06 3.473671e-03 2.386494e-03 2.407605e-03 1.329241e-02 1.081589e-02 1.096625e-02 
    33.5                2.663627e-03 3.032633e-03 7.262274e-03 9.292671e-04 7.984992e-03 3.119288e-06 3.440193e-03 2.205290e-03 2.227188e-03 1.291999e-02 1.054927e-02 1.070431e-02 
    34.5                2.668293e-03 3.092666e-03 7.308761e-03 9.401655e-04 8.005201e-03 3.539629e-06 3.489760e-03 2.122965e-03 2.145530e-03 1.304138e-02 1.061531e-02 1.080060e-02 
    35.5                2.577551e-03 2.980420e-03 6.668067e-03 9.659026e-04 7.381517e-03 3.653856e-06 3.393923e-03 1.984941e-03 2.008967e-03 1.214713e-02 9.963378e-03 1.015535e-02 
    36.5                2.632083e-03 2.887411e-03 6.495543e-03 9.841486e-04 7.200634e-03 3.974513e-06 3.404742e-03 1.854240e-03 1.879705e-03 1.194047e-02 9.795514e-03 1.001114e-02 
    37.5                2.719385e-03 3.016002e-03 6.515713e-03 1.106299e-03 7.272505e-03 4.876350e-06 3.559347e-03 1.798622e-03 1.827922e-03 1.216969e-02 1.002641e-02 1.029796e-02 
    38.5                2.934677e-03 2.941465e-03 6.207863e-03 1.356524e-03 7.150431e-03 5.650241e-06 3.809210e-03 1.727343e-03 1.766538e-03 1.211971e-02 1.005182e-02 1.036776e-02 
    39.5                2.827397e-03 3.187364e-03 6.031574e-03 1.539543e-03 7.124740e-03 6.125264e-06 4.028608e-03 1.675814e-03 1.720688e-03 1.218258e-02 1.015668e-02 1.049072e-02 
    40.5                2.919331e-03 3.129195e-03 5.884058e-03 1.535939e-03 6.978795e-03 6.174102e-06 4.000403e-03 1.608738e-03 1.653390e-03 1.197463e-02 1.007251e-02 1.039861e-02 
    41.5                3.234737e-03 3.171406e-03 5.714128e-03 1.858620e-03 7.089378e-03 6.788680e-06 4.408633e-03 1.588178e-03 1.643429e-03 1.226965e-02 1.044936e-02 1.080003e-02 
    42.5                3.147266e-03 3.464830e-03 5.337516e-03 2.188067e-03 7.020483e-03 7.158150e-06 4.761168e-03 1.579054e-03 1.644462e-03 1.224279e-02 1.058401e-02 1.094200e-02 
    43.5                3.334384e-03 3.369111e-03 4.906987e-03 2.329515e-03 6.778920e-03 6.718030e-06 4.830279e-03 1.524710e-03 1.594512e-03 1.180301e-02 1.047708e-02 1.078649e-02 
    44.5                3.670592e-03 3.533696e-03 4.905700e-03 2.745600e-03 7.173512e-03 7.073158e-06 5.429973e-03 1.568123e-03 1.650628e-03 1.251558e-02 1.119640e-02 1.151081e-02 
    45.5                3.658832e-03 3.907959e-03 4.761276e-03 3.018392e-03 7.260466e-03 7.715822e-06 5.747307e-03 1.572015e-03 1.660398e-03 1.274033e-02 1.156684e-02 1.190725e-02 
    46.5                3.746955e-03 3.826792e-03 4.571566e-03 3.122577e-03 7.164558e-03 7.896102e-06 5.851122e-03 1.534548e-03 1.624131e-03 1.259962e-02 1.151135e-02 1.186331e-02 
    47.5                4.007365e-03 3.975008e-03 4.423693e-03 3.415707e-03 7.304540e-03 8.221742e-06 6.221591e-03 1.551948e-03 1.647955e-03 1.281035e-02 1.195773e-02 1.230753e-02 
    48.5                4.397565e-03 4.071887e-03 4.113190e-03 3.982762e-03 7.563548e-03 8.328756e-06 6.896433e-03 1.593107e-03 1.703940e-03 1.318846e-02 1.256034e-02 1.289796e-02 
    49.5                4.834049e-03 4.512994e-03 4.049985e-03 4.505330e-03 8.013626e-03 8.816583e-06 7.620387e-03 1.646991e-03 1.770434e-03 1.392942e-02 1.362941e-02 1.395847e-02 
    50.5                5.549260e-03 4.812841e-03 3.875163e-03 5.336911e-03 8.661822e-03 9.322366e-06 8.723751e-03 1.721144e-03 1.865528e-03 1.495964e-02 1.497113e-02 1.529097e-02 
    51.5                6.114398e-03 5.501320e-03 3.652597e-03 6.428959e-03 9.532349e-03 9.738316e-06 1.018253e-02 1.792143e-03 1.962724e-03 1.626411e-02 1.667060e-02 1.697264e-02 
    52.5                6.115515e-03 6.200976e-03 3.337748e-03 7.027547e-03 9.836914e-03 9.866927e-06 1.092386e-02 1.832888e-03 2.014705e-03 1.662356e-02 1.748621e-02 1.776334e-02 
    53.5                6.202033e-03 6.320502e-03 2.996096e-03 7.300952e-03 9.804327e-03 9.574542e-06 1.120087e-02 1.846265e-03 2.031041e-03 1.644077e-02 1.764313e-02 1.789096e-02 
    54.5                5.840917e-03 6.436796e-03 2.662506e-03 7.357386e-03 9.572896e-03 9.040455e-06 1.117341e-02 1.826150e-03 2.008406e-03 1.595258e-02 1.728019e-02 1.749416e-02 
    55.5                5.896269e-03 6.367185e-03 2.453990e-03 7.267600e-03 9.296094e-03 8.875807e-06 1.097490e-02 1.799101e-03 1.975134e-03 1.544481e-02 1.706035e-02 1.725557e-02 
    56.5                5.620678e-03 6.230711e-03 2.200461e-03 7.228369e-03 9.035258e-03 8.370141e-06 1.084148e-02 1.755327e-03 1.927114e-03 1.495650e-02 1.653746e-02 1.671141e-02 
    57.5                5.130140e-03 5.998099e-03 1.922083e-03 6.801332e-03 8.375512e-03 7.667584e-06 1.015377e-02 1.667858e-03 1.825785e-03 1.380076e-02 1.545462e-02 1.560037e-02 
    58.5                4.919080e-03 5.512631e-03 1.639665e-03 6.443760e-03 7.789653e-03 6.810063e-06 9.567968e-03 1.541287e-03 1.687709e-03 1.274748e-02 1.443732e-02 1.454889e-02 
    59.5                4.691345e-03 5.212977e-03 1.410858e-03 6.211185e-03 7.366074e-03 6.239657e-06 9.174165e-03 1.412383e-03 1.551198e-03 1.199304e-02 1.368925e-02 1.377861e-02 
    60.5                4.266974e-03 5.034362e-03 1.231603e-03 5.848422e-03 6.854853e-03 5.720087e-06 8.610940e-03 1.259159e-03 1.386801e-03 1.109788e-02 1.281068e-02 1.288442e-02 
    61.5                3.715959e-03 4.555722e-03 9.782582e-04 5.345045e-03 6.140273e-03 4.894345e-06 7.827590e-03 1.101020e-03 1.215047e-03 9.857183e-03 1.143310e-02 1.148866e-02 
    62.5                3.038258e-03 4.204591e-03 7.949253e-04 4.588870e-03 5.230698e-03 4.225997e-06 6.707019e-03 9.399778e-04 1.035273e-03 8.355182e-03 9.895473e-03 9.939256e-03 
    63.5                2.481512e-03 3.433972e-03 5.861236e-04 3.783512e-03 4.254671e-03 3.377289e-06 5.511065e-03 7.736603e-04 8.507439e-04 6.761274e-03 8.073088e-03 8.103526e-03 
    64.5                1.985079e-03 2.827863e-03 4.514566e-04 3.079233e-03 3.439891e-03 2.716539e-06 4.477272e-03 6.126690e-04 6.739968e-04 5.446065e-03 6.552920e-03 6.575987e-03 
    65.5                1.513025e-03 2.247083e-03 3.213759e-04 2.443352e-03 2.697939e-03 2.094249e-06 3.542791e-03 4.615123e-04 5.091776e-04 4.244692e-03 5.128241e-03 5.144265e-03 
    66.5                1.076045e-03 1.802665e-03 2.232871e-04 1.865108e-03 2.040646e-03 1.570115e-06 2.698685e-03 3.301085e-04 3.656797e-04 3.191598e-03 3.906700e-03 3.917248e-03 
    67.5                6.893009e-04 1.321851e-03 1.399357e-04 1.295101e-03 1.404283e-03 1.086221e-06 1.870262e-03 2.142310e-04 2.383185e-04 2.181434e-03 2.714215e-03 2.720336e-03 
    68.5                3.868484e-04 8.882133e-04 7.759577e-05 8.222954e-04 8.819563e-04 6.827671e-07 1.184579e-03 1.226755e-04 1.375980e-04 1.358069e-03 1.714914e-03 1.718163e-03 
    69.5                1.709336e-04 5.429269e-04 3.760728e-05 4.508802e-04 4.792828e-04 3.790855e-07 6.486727e-04 5.934968e-05 6.734047e-05 7.318637e-04 9.487544e-04 9.502091e-04 
    70.5                4.369592e-05 2.719398e-04 1.423936e-05 1.906548e-04 2.012178e-04 1.713138e-07 2.739847e-04 2.235399e-05 2.563028e-05 3.045767e-04 4.121395e-04 4.126105e-04 
    71.5                5.780467e-06 9.798834e-05 4.022149e-06 5.108732e-05 5.395579e-05 6.390212e-08 7.357626e-05 5.630347e-06 6.479023e-06 8.145491e-05 1.267723e-04 1.269011e-04 
    72.5                1.271983e-07 1.710813e-05 4.957028e-07 7.014121e-06 7.353486e-06 1.176482e-08 1.013597e-05 7.921991e-07 9.044704e-07 1.099374e-05 2.001634e-05 2.002671e-05 
    73.5                0.000000e+00 1.301430e-06 1.458473e-08 3.388371e-07 3.467007e-07 1.032081e-09 4.928985e-07 3.258386e-08 3.780020e-08 5.099064e-07 1.378261e-06 1.378401e-06 
    74.5                0.000000e+00 0.000000e+00 0.000000e+00 0.000000e+00 0.000000e+00 0.000000e+00 0.000000e+00 0.000000e+00 0.000000e+00 0.000000e+00 0.000000e+00 0.000000e+00 
    75.5                0.000000e+00 0.000000e+00 0.000000e+00 0.000000e+00 0.000000e+00 0.000000e+00 0.000000e+00 0.000000e+00 0.000000e+00 0.000000e+00 0.000000e+00 0.000000e+00 
    76.5                0.000000e+00 0.000000e+00 0.000000e+00 0.000000e+00 0.000000e+00 0.000000e+00 0.000000e+00 0.000000e+00 0.000000e+00 0.000000e+00 0.000000e+00 0.000000e+00 
    77.5                0.000000e+00 0.000000e+00 0.000000e+00 0.000000e+00 0.000000e+00 0.000000e+00 0.000000e+00 0.000000e+00 0.000000e+00 0.000000e+00 0.000000e+00 0.000000e+00 
    78.5                0.000000e+00 0.000000e+00 0.000000e+00 0.000000e+00 0.000000e+00 0.000000e+00 0.000000e+00 0.000000e+00 0.000000e+00 0.000000e+00 0.000000e+00 0.000000e+00 
    79.5                0.000000e+00 0.000000e+00 0.000000e+00 0.000000e+00 0.000000e+00 0.000000e+00 0.000000e+00 0.000000e+00 0.000000e+00 0.000000e+00 0.000000e+00 0.000000e+00 


