# 80 rows of flux data
# 12 columns of flux data
# 
# total cross-sectional flux  2.395048e+00 /m^2/yr
#
#                             +x ram      -x wake      +y port -y starboard    +z zenith     -z nadir        Earth          Sun     anti-Sun      rot (x)      rot (y)      rot (z) 
# average speed (km/s)         24.74        24.79        24.80        24.72        20.16        28.88        24.75        25.13        25.13        24.15        24.16        24.76 
# total flux (#/m2/yr)  7.303657e-01 7.364454e-01 7.390143e-01 7.265727e-01 4.331265e-01 3.167471e-03 7.273550e-01 1.051150e+00 1.051204e+00 1.617454e+00 1.618634e+00 2.303123e+00 
# velocity (km/s)
     0.5                0.000000e+00 0.000000e+00 0.000000e+00 0.000000e+00 0.000000e+00 0.000000e+00 0.000000e+00 0.000000e+00 0.000000e+00 0.000000e+00 0.000000e+00 0.000000e+00 
     1.5                0.000000e+00 0.000000e+00 0.000000e+00 0.000000e+00 0.000000e+00 0.000000e+00 0.000000e+00 0.000000e+00 0.000000e+00 0.000000e+00 0.000000e+00 0.000000e+00 
     2.5                2.401383e-06 2.007482e-06 1.854965e-06 1.637602e-06 2.396705e-06 0.000000e+00 1.177506e-06 8.243585e-07 8.212280e-07 4.471117e-06 5.197983e-06 6.217440e-06 
     3.5                7.899803e-05 7.166379e-05 7.511486e-05 7.358166e-05 7.276895e-05 4.910121e-08 7.307909e-05 5.186101e-05 5.185574e-05 1.761981e-04 1.772864e-04 2.351470e-04 
     4.5                4.053429e-04 3.831517e-04 3.942009e-04 3.885389e-04 3.832152e-04 5.277524e-07 3.873344e-04 2.878962e-04 2.878765e-04 9.367539e-04 9.403121e-04 1.233779e-03 
     5.5                1.182744e-03 1.142817e-03 1.182594e-03 1.168184e-03 1.282554e-03 2.025367e-06 1.192825e-03 9.661166e-04 9.660127e-04 2.896747e-03 2.873910e-03 3.673167e-03 
     6.5                2.547917e-03 2.503449e-03 2.548904e-03 2.530359e-03 2.879574e-03 4.978731e-06 2.546730e-03 2.208903e-03 2.208529e-03 6.316728e-03 6.295831e-03 7.956070e-03 
     7.5                4.495464e-03 4.434213e-03 4.479610e-03 4.440199e-03 5.235854e-03 8.404484e-06 4.447788e-03 4.080212e-03 4.079774e-03 1.122396e-02 1.123528e-02 1.401976e-02 
     8.5                7.047028e-03 6.991392e-03 7.080562e-03 7.035324e-03 8.161421e-03 1.233520e-05 7.090266e-03 6.689792e-03 6.689764e-03 1.765708e-02 1.758843e-02 2.211194e-02 
     9.5                9.715301e-03 9.721786e-03 9.790989e-03 9.755522e-03 1.142029e-02 1.722721e-05 9.818297e-03 9.848718e-03 9.847244e-03 2.453250e-02 2.444526e-02 3.061758e-02 
    10.5                1.222807e-02 1.229191e-02 1.226649e-02 1.222717e-02 1.478549e-02 2.182717e-05 1.217450e-02 1.338966e-02 1.338965e-02 3.107807e-02 3.111367e-02 3.849571e-02 
    11.5                1.429655e-02 1.438561e-02 1.438777e-02 1.434112e-02 1.751819e-02 2.656888e-05 1.431651e-02 1.689630e-02 1.689576e-02 3.666326e-02 3.664279e-02 4.509024e-02 
    12.5                1.598568e-02 1.612019e-02 1.606266e-02 1.600002e-02 1.926624e-02 3.136299e-05 1.590844e-02 2.005383e-02 2.005483e-02 4.084046e-02 4.087624e-02 5.039840e-02 
    13.5                1.766486e-02 1.776799e-02 1.771719e-02 1.762517e-02 2.055782e-02 3.589293e-05 1.749756e-02 2.314847e-02 2.314757e-02 4.465810e-02 4.474056e-02 5.558642e-02 
    14.5                1.946721e-02 1.956689e-02 1.955998e-02 1.945547e-02 2.140818e-02 4.097968e-05 1.936568e-02 2.644152e-02 2.644086e-02 4.848510e-02 4.850283e-02 6.130000e-02 
    15.5                2.122880e-02 2.133504e-02 2.134539e-02 2.120905e-02 2.164851e-02 4.766287e-05 2.111595e-02 2.962646e-02 2.962759e-02 5.180853e-02 5.181197e-02 6.685182e-02 
    16.5                2.295387e-02 2.308787e-02 2.308105e-02 2.292384e-02 2.182452e-02 5.478726e-05 2.281936e-02 3.264268e-02 3.264123e-02 5.503903e-02 5.507490e-02 7.229329e-02 
    17.5                2.441924e-02 2.455441e-02 2.455443e-02 2.436088e-02 2.152112e-02 6.140019e-05 2.424342e-02 3.537214e-02 3.537303e-02 5.747409e-02 5.752184e-02 7.688324e-02 
    18.5                2.568860e-02 2.583140e-02 2.586775e-02 2.563993e-02 2.094225e-02 6.795051e-05 2.555671e-02 3.783576e-02 3.783509e-02 5.945906e-02 5.946606e-02 8.091805e-02 
    19.5                2.678317e-02 2.695145e-02 2.696839e-02 2.671299e-02 2.044735e-02 7.570683e-05 2.660720e-02 3.990631e-02 3.990720e-02 6.117151e-02 6.122318e-02 8.436519e-02 
    20.5                2.760170e-02 2.776841e-02 2.780153e-02 2.750405e-02 1.959346e-02 8.382677e-05 2.740185e-02 4.145704e-02 4.145715e-02 6.221393e-02 6.227005e-02 8.692555e-02 
    21.5                2.856704e-02 2.871090e-02 2.878626e-02 2.843332e-02 1.874409e-02 9.260692e-05 2.836273e-02 4.312615e-02 4.312739e-02 6.350467e-02 6.355285e-02 8.992726e-02 
    22.5                2.951440e-02 2.967496e-02 2.978343e-02 2.940222e-02 1.825402e-02 1.000751e-04 2.937022e-02 4.478446e-02 4.478452e-02 6.509838e-02 6.510177e-02 9.297256e-02 
    23.5                3.011730e-02 3.030893e-02 3.039475e-02 2.997880e-02 1.736287e-02 1.065065e-04 2.993613e-02 4.577869e-02 4.578007e-02 6.570528e-02 6.575435e-02 9.487722e-02 
    24.5                3.040233e-02 3.059358e-02 3.069919e-02 3.024564e-02 1.635813e-02 1.129393e-04 3.021814e-02 4.625092e-02 4.625279e-02 6.574168e-02 6.578754e-02 9.577270e-02 
    25.5                3.055744e-02 3.075867e-02 3.088380e-02 3.040332e-02 1.521553e-02 1.198363e-04 3.040439e-02 4.647493e-02 4.647509e-02 6.552330e-02 6.555031e-02 9.629394e-02 
    26.5                3.030282e-02 3.053566e-02 3.066086e-02 3.014916e-02 1.401432e-02 1.256336e-04 3.017456e-02 4.606534e-02 4.606733e-02 6.453401e-02 6.455668e-02 9.554459e-02 
    27.5                2.974160e-02 2.997822e-02 3.008908e-02 2.955225e-02 1.278446e-02 1.297611e-04 2.956216e-02 4.510672e-02 4.510949e-02 6.288273e-02 6.295708e-02 9.374732e-02 
    28.5                2.899511e-02 2.922534e-02 2.937168e-02 2.881583e-02 1.160179e-02 1.334290e-04 2.887647e-02 4.386226e-02 4.386441e-02 6.100266e-02 6.103056e-02 9.142741e-02 
    29.5                2.808941e-02 2.833377e-02 2.847426e-02 2.790214e-02 1.042685e-02 1.372954e-04 2.797376e-02 4.236044e-02 4.236235e-02 5.878194e-02 5.882708e-02 8.859301e-02 
    30.5                2.689554e-02 2.714479e-02 2.729024e-02 2.670474e-02 9.233206e-03 1.395022e-04 2.679614e-02 4.041014e-02 4.041183e-02 5.601872e-02 5.605980e-02 8.485161e-02 
    31.5                2.553564e-02 2.578834e-02 2.593411e-02 2.533763e-02 8.017179e-03 1.410066e-04 2.544196e-02 3.817961e-02 3.818278e-02 5.292959e-02 5.297866e-02 8.057949e-02 
    32.5                2.392710e-02 2.418221e-02 2.434028e-02 2.374122e-02 6.860523e-03 1.408243e-04 2.387982e-02 3.556895e-02 3.557298e-02 4.942298e-02 4.944672e-02 7.554965e-02 
    33.5                2.201909e-02 2.229116e-02 2.242552e-02 2.184206e-02 5.808260e-03 1.374863e-04 2.197744e-02 3.252442e-02 3.252723e-02 4.534418e-02 4.538417e-02 6.957033e-02 
    34.5                1.992972e-02 2.019097e-02 2.031525e-02 1.975019e-02 4.831974e-03 1.319102e-04 1.988354e-02 2.923152e-02 2.923404e-02 4.091564e-02 4.096907e-02 6.297960e-02 
    35.5                1.783499e-02 1.808078e-02 1.819938e-02 1.766239e-02 3.915932e-03 1.261683e-04 1.779724e-02 2.596491e-02 2.596855e-02 3.651156e-02 3.656285e-02 5.637430e-02 
    36.5                1.576008e-02 1.599197e-02 1.611181e-02 1.559746e-02 3.086530e-03 1.200910e-04 1.574805e-02 2.276133e-02 2.276320e-02 3.218650e-02 3.222656e-02 4.984221e-02 
    37.5                1.370431e-02 1.392422e-02 1.403329e-02 1.355240e-02 2.384760e-03 1.123510e-04 1.369919e-02 1.962179e-02 1.962569e-02 2.792921e-02 2.796964e-02 4.336467e-02 
    38.5                1.163261e-02 1.184003e-02 1.193938e-02 1.149860e-02 1.790994e-03 1.025240e-04 1.164320e-02 1.651289e-02 1.651624e-02 2.367664e-02 2.370981e-02 3.684328e-02 
    39.5                9.580324e-03 9.776098e-03 9.854621e-03 9.464755e-03 1.292789e-03 9.109632e-05 9.596448e-03 1.347353e-02 1.347628e-02 1.947817e-02 1.951383e-02 3.037658e-02 
    40.5                7.566424e-03 7.746312e-03 7.801768e-03 7.472883e-03 8.864457e-04 7.750665e-05 7.582311e-03 1.053999e-02 1.054304e-02 1.537477e-02 1.541162e-02 2.402403e-02 
    41.5                5.731869e-03 5.885273e-03 5.917690e-03 5.649371e-03 5.748708e-04 6.339914e-05 5.729067e-03 7.901856e-03 7.904134e-03 1.162654e-02 1.167559e-02 1.820937e-02 
    42.5                4.150683e-03 4.273190e-03 4.295505e-03 4.089824e-03 3.517667e-04 4.955843e-05 4.154588e-03 5.665314e-03 5.667360e-03 8.418619e-03 8.456404e-03 1.320240e-02 
    43.5                2.818913e-03 2.921122e-03 2.928066e-03 2.783840e-03 2.017993e-04 3.622470e-05 2.827929e-03 3.815228e-03 3.817332e-03 5.729407e-03 5.757060e-03 8.994349e-03 
    44.5                1.732639e-03 1.811066e-03 1.800205e-03 1.709216e-03 1.048236e-04 2.390049e-05 1.727589e-03 2.323106e-03 2.324463e-03 3.517776e-03 3.551706e-03 5.539412e-03 
    45.5                9.164470e-04 9.703243e-04 9.530256e-04 9.051328e-04 4.733675e-05 1.350765e-05 9.080022e-04 1.220028e-03 1.220837e-03 1.861642e-03 1.890045e-03 2.941189e-03 
    46.5                3.927991e-04 4.236930e-04 4.061916e-04 3.853287e-04 1.779356e-05 6.146951e-06 3.785803e-04 5.184317e-04 5.191123e-04 7.927673e-04 8.176342e-04 1.262959e-03 
    47.5                1.247731e-04 1.370552e-04 1.271765e-04 1.205883e-04 5.082201e-06 2.097608e-06 1.144486e-04 1.627154e-04 1.629482e-04 2.481153e-04 2.621334e-04 4.002435e-04 
    48.5                2.774301e-05 3.096783e-05 2.759117e-05 2.615010e-05 1.027343e-06 5.025237e-07 2.360865e-05 3.558411e-05 3.563916e-05 5.381141e-05 5.876868e-05 8.833692e-05 
    49.5                3.537103e-06 4.018766e-06 3.340754e-06 3.149087e-06 1.224920e-07 6.756814e-08 2.575103e-06 4.412785e-06 4.434635e-06 6.498709e-06 7.562312e-06 1.103729e-05 
    50.5                9.587061e-08 1.119840e-07 8.337085e-08 7.667729e-08 3.079105e-09 1.997372e-09 4.998937e-08 1.158750e-07 1.151298e-07 1.602993e-07 2.080035e-07 2.893084e-07 
    51.5                0.000000e+00 0.000000e+00 0.000000e+00 0.000000e+00 0.000000e+00 0.000000e+00 0.000000e+00 0.000000e+00 0.000000e+00 0.000000e+00 0.000000e+00 0.000000e+00 
    52.5                0.000000e+00 0.000000e+00 0.000000e+00 0.000000e+00 0.000000e+00 0.000000e+00 0.000000e+00 0.000000e+00 0.000000e+00 0.000000e+00 0.000000e+00 0.000000e+00 
    53.5                0.000000e+00 0.000000e+00 0.000000e+00 0.000000e+00 0.000000e+00 0.000000e+00 0.000000e+00 0.000000e+00 0.000000e+00 0.000000e+00 0.000000e+00 0.000000e+00 
    54.5                0.000000e+00 0.000000e+00 0.000000e+00 0.000000e+00 0.000000e+00 0.000000e+00 0.000000e+00 0.000000e+00 0.000000e+00 0.000000e+00 0.000000e+00 0.000000e+00 
    55.5                0.000000e+00 0.000000e+00 0.000000e+00 0.000000e+00 0.000000e+00 0.000000e+00 0.000000e+00 0.000000e+00 0.000000e+00 0.000000e+00 0.000000e+00 0.000000e+00 
    56.5                0.000000e+00 0.000000e+00 0.000000e+00 0.000000e+00 0.000000e+00 0.000000e+00 0.000000e+00 0.000000e+00 0.000000e+00 0.000000e+00 0.000000e+00 0.000000e+00 
    57.5                0.000000e+00 0.000000e+00 0.000000e+00 0.000000e+00 0.000000e+00 0.000000e+00 0.000000e+00 0.000000e+00 0.000000e+00 0.000000e+00 0.000000e+00 0.000000e+00 
    58.5                0.000000e+00 0.000000e+00 0.000000e+00 0.000000e+00 0.000000e+00 0.000000e+00 0.000000e+00 0.000000e+00 0.000000e+00 0.000000e+00 0.000000e+00 0.000000e+00 
    59.5                0.000000e+00 0.000000e+00 0.000000e+00 0.000000e+00 0.000000e+00 0.000000e+00 0.000000e+00 0.000000e+00 0.000000e+00 0.000000e+00 0.000000e+00 0.000000e+00 
    60.5                0.000000e+00 0.000000e+00 0.000000e+00 0.000000e+00 0.000000e+00 0.000000e+00 0.000000e+00 0.000000e+00 0.000000e+00 0.000000e+00 0.000000e+00 0.000000e+00 
    61.5                0.000000e+00 0.000000e+00 0.000000e+00 0.000000e+00 0.000000e+00 0.000000e+00 0.000000e+00 0.000000e+00 0.000000e+00 0.000000e+00 0.000000e+00 0.000000e+00 
    62.5                0.000000e+00 0.000000e+00 0.000000e+00 0.000000e+00 0.000000e+00 0.000000e+00 0.000000e+00 0.000000e+00 0.000000e+00 0.000000e+00 0.000000e+00 0.000000e+00 
    63.5                0.000000e+00 0.000000e+00 0.000000e+00 0.000000e+00 0.000000e+00 0.000000e+00 0.000000e+00 0.000000e+00 0.000000e+00 0.000000e+00 0.000000e+00 0.000000e+00 
    64.5                0.000000e+00 0.000000e+00 0.000000e+00 0.000000e+00 0.000000e+00 0.000000e+00 0.000000e+00 0.000000e+00 0.000000e+00 0.000000e+00 0.000000e+00 0.000000e+00 
    65.5                0.000000e+00 0.000000e+00 0.000000e+00 0.000000e+00 0.000000e+00 0.000000e+00 0.000000e+00 0.000000e+00 0.000000e+00 0.000000e+00 0.000000e+00 0.000000e+00 
    66.5                0.000000e+00 0.000000e+00 0.000000e+00 0.000000e+00 0.000000e+00 0.000000e+00 0.000000e+00 0.000000e+00 0.000000e+00 0.000000e+00 0.000000e+00 0.000000e+00 
    67.5                0.000000e+00 0.000000e+00 0.000000e+00 0.000000e+00 0.000000e+00 0.000000e+00 0.000000e+00 0.000000e+00 0.000000e+00 0.000000e+00 0.000000e+00 0.000000e+00 
    68.5                0.000000e+00 0.000000e+00 0.000000e+00 0.000000e+00 0.000000e+00 0.000000e+00 0.000000e+00 0.000000e+00 0.000000e+00 0.000000e+00 0.000000e+00 0.000000e+00 
    69.5                0.000000e+00 0.000000e+00 0.000000e+00 0.000000e+00 0.000000e+00 0.000000e+00 0.000000e+00 0.000000e+00 0.000000e+00 0.000000e+00 0.000000e+00 0.000000e+00 
    70.5                0.000000e+00 0.000000e+00 0.000000e+00 0.000000e+00 0.000000e+00 0.000000e+00 0.000000e+00 0.000000e+00 0.000000e+00 0.000000e+00 0.000000e+00 0.000000e+00 
    71.5                0.000000e+00 0.000000e+00 0.000000e+00 0.000000e+00 0.000000e+00 0.000000e+00 0.000000e+00 0.000000e+00 0.000000e+00 0.000000e+00 0.000000e+00 0.000000e+00 
    72.5                0.000000e+00 0.000000e+00 0.000000e+00 0.000000e+00 0.000000e+00 0.000000e+00 0.000000e+00 0.000000e+00 0.000000e+00 0.000000e+00 0.000000e+00 0.000000e+00 
    73.5                0.000000e+00 0.000000e+00 0.000000e+00 0.000000e+00 0.000000e+00 0.000000e+00 0.000000e+00 0.000000e+00 0.000000e+00 0.000000e+00 0.000000e+00 0.000000e+00 
    74.5                0.000000e+00 0.000000e+00 0.000000e+00 0.000000e+00 0.000000e+00 0.000000e+00 0.000000e+00 0.000000e+00 0.000000e+00 0.000000e+00 0.000000e+00 0.000000e+00 
    75.5                0.000000e+00 0.000000e+00 0.000000e+00 0.000000e+00 0.000000e+00 0.000000e+00 0.000000e+00 0.000000e+00 0.000000e+00 0.000000e+00 0.000000e+00 0.000000e+00 
    76.5                0.000000e+00 0.000000e+00 0.000000e+00 0.000000e+00 0.000000e+00 0.000000e+00 0.000000e+00 0.000000e+00 0.000000e+00 0.000000e+00 0.000000e+00 0.000000e+00 
    77.5                0.000000e+00 0.000000e+00 0.000000e+00 0.000000e+00 0.000000e+00 0.000000e+00 0.000000e+00 0.000000e+00 0.000000e+00 0.000000e+00 0.000000e+00 0.000000e+00 
    78.5                0.000000e+00 0.000000e+00 0.000000e+00 0.000000e+00 0.000000e+00 0.000000e+00 0.000000e+00 0.000000e+00 0.000000e+00 0.000000e+00 0.000000e+00 0.000000e+00 
    79.5                0.000000e+00 0.000000e+00 0.000000e+00 0.000000e+00 0.000000e+00 0.000000e+00 0.000000e+00 0.000000e+00 0.000000e+00 0.000000e+00 0.000000e+00 0.000000e+00 


