# 80 rows of flux data
# 12 columns of flux data
# 
# total cross-sectional flux  2.157415e+00 /m^2/yr
#
#                             +x ram      -x wake      +y port -y starboard    +z zenith     -z nadir        Earth          Sun     anti-Sun      rot (x)      rot (y)      rot (z) 
# average speed (km/s)         24.66        23.83        23.54        17.68        24.21        23.59        20.23        24.68        24.67        23.63        24.25        23.86 
# total flux (#/m2/yr)  7.179010e-01 6.123617e-01 4.983393e-01 1.126972e-01 1.220415e+00 5.291935e-04 1.022912e-02 9.492337e-01 9.356290e-01 1.446752e+00 2.011805e+00 1.577713e+00 
# velocity (km/s)
     0.5                0.000000e+00 0.000000e+00 0.000000e+00 0.000000e+00 0.000000e+00 0.000000e+00 0.000000e+00 0.000000e+00 0.000000e+00 0.000000e+00 0.000000e+00 0.000000e+00 
     1.5                0.000000e+00 0.000000e+00 0.000000e+00 0.000000e+00 0.000000e+00 0.000000e+00 0.000000e+00 0.000000e+00 0.000000e+00 0.000000e+00 0.000000e+00 0.000000e+00 
     2.5                0.000000e+00 5.147583e-06 5.453497e-07 4.726614e-07 2.422569e-06 1.350839e-09 4.169774e-08 2.084608e-06 1.388969e-07 2.822656e-06 5.918630e-06 5.310153e-06 
     3.5                3.157875e-06 1.192442e-04 3.616919e-05 1.694213e-05 1.006909e-04 4.310038e-08 1.460910e-06 5.773812e-05 2.162091e-05 1.227928e-04 1.761279e-04 1.414946e-04 
     4.5                1.205093e-04 5.452732e-04 2.389779e-04 1.070331e-04 5.878255e-04 2.590357e-07 8.263612e-06 2.957998e-04 1.695189e-04 7.404523e-04 9.880691e-04 8.061825e-04 
     5.5                5.716599e-04 1.479292e-03 8.636993e-04 3.959851e-04 1.976302e-03 8.432890e-07 2.855841e-05 9.673744e-04 7.185467e-04 2.557320e-03 3.177167e-03 2.613389e-03 
     6.5                1.912290e-03 2.771907e-03 1.996070e-03 9.179046e-04 4.411012e-03 1.979144e-06 6.293648e-05 2.186255e-03 1.846517e-03 5.773052e-03 7.172479e-03 5.991808e-03 
     7.5                3.574473e-03 4.920683e-03 3.655246e-03 1.772326e-03 7.861791e-03 3.789182e-06 1.221389e-04 3.966122e-03 3.648157e-03 1.047111e-02 1.290136e-02 1.096713e-02 
     8.5                6.043414e-03 7.314164e-03 5.851898e-03 2.728830e-03 1.260293e-02 5.883242e-06 1.852794e-04 6.365368e-03 6.225502e-03 1.669192e-02 2.047074e-02 1.725421e-02 
     9.5                9.226917e-03 9.312374e-03 8.221544e-03 3.860624e-03 1.757901e-02 8.250268e-06 2.617484e-04 9.310393e-03 9.311045e-03 2.337706e-02 2.848559e-02 2.409469e-02 
    10.5                1.247950e-02 1.132809e-02 1.049263e-02 5.189046e-03 2.198873e-02 1.100919e-05 3.500915e-04 1.275400e-02 1.272450e-02 2.966034e-02 3.612645e-02 3.106276e-02 
    11.5                1.472483e-02 1.299620e-02 1.242443e-02 6.308870e-03 2.591254e-02 1.295468e-05 4.280233e-04 1.617655e-02 1.606480e-02 3.515133e-02 4.231249e-02 3.654944e-02 
    12.5                1.690597e-02 1.425542e-02 1.374111e-02 7.098998e-03 2.878071e-02 1.494077e-05 4.997597e-04 1.923006e-02 1.908022e-02 3.910579e-02 4.729234e-02 4.097304e-02 
    13.5                1.818401e-02 1.618214e-02 1.492857e-02 7.557524e-03 3.162738e-02 1.644120e-05 5.449619e-04 2.218691e-02 2.199884e-02 4.268303e-02 5.205252e-02 4.492806e-02 
    14.5                1.982934e-02 1.785553e-02 1.613849e-02 7.638850e-03 3.491888e-02 1.764644e-05 5.604785e-04 2.532501e-02 2.508088e-02 4.633381e-02 5.726934e-02 4.872449e-02 
    15.5                2.153442e-02 1.939479e-02 1.708417e-02 7.423180e-03 3.791326e-02 1.860025e-05 5.583994e-04 2.830655e-02 2.801408e-02 4.931450e-02 6.219434e-02 5.206787e-02 
    16.5                2.335969e-02 2.077963e-02 1.805162e-02 7.159647e-03 4.075903e-02 1.951495e-05 5.477160e-04 3.111457e-02 3.077774e-02 5.213506e-02 6.695872e-02 5.538323e-02 
    17.5                2.469294e-02 2.211879e-02 1.876209e-02 6.689709e-03 4.308422e-02 2.017469e-05 5.213053e-04 3.362110e-02 3.325257e-02 5.418735e-02 7.090569e-02 5.787041e-02 
    18.5                2.589578e-02 2.308763e-02 1.931531e-02 6.078164e-03 4.518690e-02 2.038598e-05 4.806367e-04 3.582654e-02 3.543263e-02 5.582594e-02 7.427706e-02 5.975354e-02 
    19.5                2.705948e-02 2.381119e-02 1.974171e-02 5.628931e-03 4.675877e-02 2.078295e-05 4.551287e-04 3.760545e-02 3.718748e-02 5.706448e-02 7.700659e-02 6.143164e-02 
    20.5                2.766392e-02 2.447250e-02 1.989061e-02 5.127623e-03 4.780088e-02 2.096538e-05 4.312364e-04 3.884072e-02 3.839736e-02 5.762862e-02 7.882628e-02 6.234777e-02 
    21.5                2.811412e-02 2.547513e-02 2.020056e-02 4.543383e-03 4.911225e-02 2.118001e-05 3.971125e-04 4.019359e-02 3.971038e-02 5.845540e-02 8.100400e-02 6.345568e-02 
    22.5                2.900144e-02 2.609464e-02 2.058123e-02 4.198977e-03 5.065253e-02 2.145169e-05 3.815260e-04 4.159195e-02 4.107172e-02 5.971805e-02 8.340785e-02 6.487958e-02 
    23.5                2.976464e-02 2.633104e-02 2.065645e-02 3.684751e-03 5.141213e-02 2.155540e-05 3.559536e-04 4.239473e-02 4.184514e-02 5.998775e-02 8.479126e-02 6.550365e-02 
    24.5                2.992532e-02 2.645965e-02 2.052320e-02 3.241781e-03 5.161440e-02 2.149240e-05 3.348653e-04 4.264249e-02 4.206478e-02 5.969960e-02 8.518030e-02 6.543466e-02 
    25.5                2.997119e-02 2.633671e-02 2.028798e-02 2.778412e-03 5.157254e-02 2.123605e-05 3.107022e-04 4.258964e-02 4.198682e-02 5.911278e-02 8.508531e-02 6.497382e-02 
    26.5                2.983569e-02 2.567096e-02 1.981298e-02 2.393502e-03 5.084458e-02 2.077049e-05 2.899081e-04 4.195681e-02 4.134617e-02 5.784313e-02 8.388031e-02 6.375646e-02 
    27.5                2.921820e-02 2.501805e-02 1.913288e-02 2.033629e-03 4.948850e-02 2.023968e-05 2.689945e-04 4.085078e-02 4.024272e-02 5.592996e-02 8.181031e-02 6.201387e-02 
    28.5                2.827478e-02 2.417294e-02 1.840942e-02 1.733327e-03 4.798362e-02 1.943456e-05 2.502344e-04 3.945447e-02 3.884984e-02 5.391064e-02 7.920823e-02 5.980235e-02 
    29.5                2.739197e-02 2.304830e-02 1.756442e-02 1.434015e-03 4.609660e-02 1.858056e-05 2.286559e-04 3.780443e-02 3.720906e-02 5.149232e-02 7.613490e-02 5.732161e-02 
    30.5                2.613684e-02 2.179510e-02 1.657341e-02 1.177786e-03 4.377827e-02 1.760004e-05 2.093588e-04 3.577372e-02 3.519995e-02 4.864868e-02 7.233043e-02 5.431603e-02 
    31.5                2.474186e-02 2.032971e-02 1.548734e-02 9.387052e-04 4.115938e-02 1.648904e-05 1.887608e-04 3.347197e-02 3.292359e-02 4.549672e-02 6.801007e-02 5.094173e-02 
    32.5                2.314200e-02 1.864079e-02 1.428803e-02 7.434267e-04 3.816626e-02 1.523096e-05 1.689705e-04 3.084598e-02 3.033312e-02 4.199567e-02 6.305561e-02 4.712621e-02 
    33.5                2.135773e-02 1.674246e-02 1.295908e-02 5.825271e-04 3.475719e-02 1.386622e-05 1.495758e-04 2.792079e-02 2.745015e-02 3.809906e-02 5.746220e-02 4.289184e-02 
    34.5                1.928925e-02 1.484522e-02 1.155871e-02 4.511694e-04 3.110909e-02 1.240412e-05 1.307849e-04 2.482744e-02 2.440540e-02 3.398603e-02 5.145761e-02 3.836834e-02 
    35.5                1.718295e-02 1.295589e-02 1.015918e-02 3.399943e-04 2.743129e-02 1.094860e-05 1.126501e-04 2.174281e-02 2.136941e-02 2.986936e-02 4.540664e-02 3.382454e-02 
    36.5                1.505263e-02 1.112285e-02 8.796906e-03 2.445773e-04 2.382783e-02 9.479152e-06 9.493381e-05 1.872650e-02 1.840201e-02 2.585791e-02 3.943701e-02 2.933773e-02 
    37.5                1.301269e-02 9.346039e-03 7.486923e-03 1.732542e-04 2.033272e-02 8.087686e-06 7.902767e-05 1.584297e-02 1.556811e-02 2.200064e-02 3.366930e-02 2.502820e-02 
    38.5                1.101335e-02 7.596172e-03 6.220129e-03 1.180609e-04 1.693166e-02 6.717020e-06 6.432970e-05 1.306607e-02 1.283994e-02 1.827190e-02 2.803121e-02 2.081393e-02 
    39.5                9.098858e-03 5.904272e-03 4.994074e-03 7.740869e-05 1.361990e-02 5.414122e-06 5.093999e-05 1.041366e-02 1.023524e-02 1.466419e-02 2.257431e-02 1.676041e-02 
    40.5                7.211618e-03 4.363795e-03 3.833267e-03 4.830504e-05 1.047042e-02 4.195172e-06 3.881479e-05 7.933393e-03 7.800083e-03 1.125062e-02 1.738858e-02 1.291577e-02 
    41.5                5.455974e-03 3.078195e-03 2.803861e-03 2.855362e-05 7.668603e-03 3.107764e-06 2.828178e-05 5.765654e-03 5.670937e-03 8.225722e-03 1.278067e-02 9.507253e-03 
    42.5                3.919822e-03 2.054658e-03 1.955573e-03 1.597835e-05 5.354221e-03 2.181383e-06 1.952955e-05 3.985508e-03 3.921931e-03 5.734632e-03 8.936793e-03 6.650229e-03 
    43.5                2.695642e-03 1.230229e-03 1.278304e-03 8.336183e-06 3.502788e-03 1.434033e-06 1.267873e-05 2.582235e-03 2.543341e-03 3.747083e-03 5.860604e-03 4.365584e-03 
    44.5                1.711593e-03 6.396595e-04 7.513155e-04 4.064172e-06 2.059727e-03 8.700474e-07 7.661830e-06 1.514027e-03 1.493973e-03 2.201435e-03 3.480397e-03 2.606449e-03 
    45.5                9.557054e-04 2.650649e-04 3.801966e-04 1.725460e-06 1.042628e-03 4.606744e-07 4.054711e-06 7.672115e-04 7.587646e-04 1.113618e-03 1.786272e-03 1.347733e-03 
    46.5                4.463315e-04 7.770872e-05 1.536741e-04 6.374664e-07 4.213966e-04 2.086732e-07 1.831227e-06 3.163103e-04 3.141150e-04 4.499592e-04 7.466208e-04 5.733742e-04 
    47.5                1.539401e-04 1.516188e-05 4.520972e-05 1.899232e-07 1.239240e-04 7.236157e-08 6.407987e-07 9.675127e-05 9.672799e-05 1.323294e-04 2.318570e-04 1.827621e-04 
    48.5                3.719104e-05 1.356797e-06 9.112876e-06 3.888214e-08 2.496394e-05 1.782922e-08 1.543420e-07 2.066803e-05 2.081968e-05 2.666122e-05 5.032231e-05 4.101486e-05 
    49.5                5.178280e-06 1.187257e-08 9.846227e-07 5.213832e-09 2.693589e-06 2.537225e-09 2.276206e-08 2.526744e-06 2.575224e-06 2.879272e-06 6.254464e-06 5.388303e-06 
    50.5                1.496466e-07 0.000000e+00 1.894478e-08 1.629838e-10 5.168011e-08 8.053290e-11 7.547259e-10 6.471174e-08 6.630344e-08 5.538737e-08 1.625270e-07 1.515525e-07 
    51.5                0.000000e+00 0.000000e+00 0.000000e+00 0.000000e+00 0.000000e+00 0.000000e+00 0.000000e+00 0.000000e+00 0.000000e+00 0.000000e+00 0.000000e+00 0.000000e+00 
    52.5                0.000000e+00 0.000000e+00 0.000000e+00 0.000000e+00 0.000000e+00 0.000000e+00 0.000000e+00 0.000000e+00 0.000000e+00 0.000000e+00 0.000000e+00 0.000000e+00 
    53.5                0.000000e+00 0.000000e+00 0.000000e+00 0.000000e+00 0.000000e+00 0.000000e+00 0.000000e+00 0.000000e+00 0.000000e+00 0.000000e+00 0.000000e+00 0.000000e+00 
    54.5                0.000000e+00 0.000000e+00 0.000000e+00 0.000000e+00 0.000000e+00 0.000000e+00 0.000000e+00 0.000000e+00 0.000000e+00 0.000000e+00 0.000000e+00 0.000000e+00 
    55.5                0.000000e+00 0.000000e+00 0.000000e+00 0.000000e+00 0.000000e+00 0.000000e+00 0.000000e+00 0.000000e+00 0.000000e+00 0.000000e+00 0.000000e+00 0.000000e+00 
    56.5                0.000000e+00 0.000000e+00 0.000000e+00 0.000000e+00 0.000000e+00 0.000000e+00 0.000000e+00 0.000000e+00 0.000000e+00 0.000000e+00 0.000000e+00 0.000000e+00 
    57.5                0.000000e+00 0.000000e+00 0.000000e+00 0.000000e+00 0.000000e+00 0.000000e+00 0.000000e+00 0.000000e+00 0.000000e+00 0.000000e+00 0.000000e+00 0.000000e+00 
    58.5                0.000000e+00 0.000000e+00 0.000000e+00 0.000000e+00 0.000000e+00 0.000000e+00 0.000000e+00 0.000000e+00 0.000000e+00 0.000000e+00 0.000000e+00 0.000000e+00 
    59.5                0.000000e+00 0.000000e+00 0.000000e+00 0.000000e+00 0.000000e+00 0.000000e+00 0.000000e+00 0.000000e+00 0.000000e+00 0.000000e+00 0.000000e+00 0.000000e+00 
    60.5                0.000000e+00 0.000000e+00 0.000000e+00 0.000000e+00 0.000000e+00 0.000000e+00 0.000000e+00 0.000000e+00 0.000000e+00 0.000000e+00 0.000000e+00 0.000000e+00 
    61.5                0.000000e+00 0.000000e+00 0.000000e+00 0.000000e+00 0.000000e+00 0.000000e+00 0.000000e+00 0.000000e+00 0.000000e+00 0.000000e+00 0.000000e+00 0.000000e+00 
    62.5                0.000000e+00 0.000000e+00 0.000000e+00 0.000000e+00 0.000000e+00 0.000000e+00 0.000000e+00 0.000000e+00 0.000000e+00 0.000000e+00 0.000000e+00 0.000000e+00 
    63.5                0.000000e+00 0.000000e+00 0.000000e+00 0.000000e+00 0.000000e+00 0.000000e+00 0.000000e+00 0.000000e+00 0.000000e+00 0.000000e+00 0.000000e+00 0.000000e+00 
    64.5                0.000000e+00 0.000000e+00 0.000000e+00 0.000000e+00 0.000000e+00 0.000000e+00 0.000000e+00 0.000000e+00 0.000000e+00 0.000000e+00 0.000000e+00 0.000000e+00 
    65.5                0.000000e+00 0.000000e+00 0.000000e+00 0.000000e+00 0.000000e+00 0.000000e+00 0.000000e+00 0.000000e+00 0.000000e+00 0.000000e+00 0.000000e+00 0.000000e+00 
    66.5                0.000000e+00 0.000000e+00 0.000000e+00 0.000000e+00 0.000000e+00 0.000000e+00 0.000000e+00 0.000000e+00 0.000000e+00 0.000000e+00 0.000000e+00 0.000000e+00 
    67.5                0.000000e+00 0.000000e+00 0.000000e+00 0.000000e+00 0.000000e+00 0.000000e+00 0.000000e+00 0.000000e+00 0.000000e+00 0.000000e+00 0.000000e+00 0.000000e+00 
    68.5                0.000000e+00 0.000000e+00 0.000000e+00 0.000000e+00 0.000000e+00 0.000000e+00 0.000000e+00 0.000000e+00 0.000000e+00 0.000000e+00 0.000000e+00 0.000000e+00 
    69.5                0.000000e+00 0.000000e+00 0.000000e+00 0.000000e+00 0.000000e+00 0.000000e+00 0.000000e+00 0.000000e+00 0.000000e+00 0.000000e+00 0.000000e+00 0.000000e+00 
    70.5                0.000000e+00 0.000000e+00 0.000000e+00 0.000000e+00 0.000000e+00 0.000000e+00 0.000000e+00 0.000000e+00 0.000000e+00 0.000000e+00 0.000000e+00 0.000000e+00 
    71.5                0.000000e+00 0.000000e+00 0.000000e+00 0.000000e+00 0.000000e+00 0.000000e+00 0.000000e+00 0.000000e+00 0.000000e+00 0.000000e+00 0.000000e+00 0.000000e+00 
    72.5                0.000000e+00 0.000000e+00 0.000000e+00 0.000000e+00 0.000000e+00 0.000000e+00 0.000000e+00 0.000000e+00 0.000000e+00 0.000000e+00 0.000000e+00 0.000000e+00 
    73.5                0.000000e+00 0.000000e+00 0.000000e+00 0.000000e+00 0.000000e+00 0.000000e+00 0.000000e+00 0.000000e+00 0.000000e+00 0.000000e+00 0.000000e+00 0.000000e+00 
    74.5                0.000000e+00 0.000000e+00 0.000000e+00 0.000000e+00 0.000000e+00 0.000000e+00 0.000000e+00 0.000000e+00 0.000000e+00 0.000000e+00 0.000000e+00 0.000000e+00 
    75.5                0.000000e+00 0.000000e+00 0.000000e+00 0.000000e+00 0.000000e+00 0.000000e+00 0.000000e+00 0.000000e+00 0.000000e+00 0.000000e+00 0.000000e+00 0.000000e+00 
    76.5                0.000000e+00 0.000000e+00 0.000000e+00 0.000000e+00 0.000000e+00 0.000000e+00 0.000000e+00 0.000000e+00 0.000000e+00 0.000000e+00 0.000000e+00 0.000000e+00 
    77.5                0.000000e+00 0.000000e+00 0.000000e+00 0.000000e+00 0.000000e+00 0.000000e+00 0.000000e+00 0.000000e+00 0.000000e+00 0.000000e+00 0.000000e+00 0.000000e+00 
    78.5                0.000000e+00 0.000000e+00 0.000000e+00 0.000000e+00 0.000000e+00 0.000000e+00 0.000000e+00 0.000000e+00 0.000000e+00 0.000000e+00 0.000000e+00 0.000000e+00 
    79.5                0.000000e+00 0.000000e+00 0.000000e+00 0.000000e+00 0.000000e+00 0.000000e+00 0.000000e+00 0.000000e+00 0.000000e+00 0.000000e+00 0.000000e+00 0.000000e+00 


