# 80 rows of flux data
# 12 columns of flux data
# 
# total cross-sectional flux  1.024965e+00 /m^2/yr
#
#                       +x vernal eq.           -x           +y           -y +z eclip. N. -z eclip. S.        Earth          Sun     anti-Sun      rot (x)      rot (y)      rot (z) 
# average speed (km/s)         37.34        37.44        37.39        37.42        17.44        31.66        37.48        27.82        27.82        33.74        33.73        37.40 
# total flux (#/m2/yr)  2.231786e-01 2.410033e-01 2.297339e-01 2.338848e-01 8.806762e-05 6.342969e-01 2.306274e-01 1.664340e-01 1.664506e-01 8.500742e-01 8.503179e-01 7.286616e-01 
# velocity (km/s)
     0.5                0.000000e+00 0.000000e+00 0.000000e+00 0.000000e+00 0.000000e+00 0.000000e+00 0.000000e+00 0.000000e+00 0.000000e+00 0.000000e+00 0.000000e+00 0.000000e+00 
     1.5                0.000000e+00 0.000000e+00 0.000000e+00 0.000000e+00 0.000000e+00 0.000000e+00 0.000000e+00 0.000000e+00 0.000000e+00 0.000000e+00 0.000000e+00 0.000000e+00 
     2.5                9.443142e-05 7.258208e-05 8.496690e-05 8.029050e-05 1.085808e-07 1.554146e-04 8.949097e-05 8.420323e-05 8.433399e-05 2.511365e-04 2.526566e-04 2.608563e-04 
     3.5                4.655527e-04 4.020973e-04 4.414031e-04 4.271036e-04 7.238984e-07 7.494673e-04 4.462999e-04 4.411471e-04 4.411083e-04 1.267633e-03 1.267981e-03 1.363286e-03 
     4.5                9.125775e-04 9.092765e-04 9.147755e-04 9.141607e-04 1.792099e-06 1.635194e-03 9.194017e-04 9.748248e-04 9.747795e-04 2.718886e-03 2.712482e-03 2.866991e-03 
     5.5                1.395884e-03 1.473429e-03 1.427391e-03 1.445659e-03 2.814481e-06 2.747609e-03 1.427437e-03 1.606394e-03 1.606456e-03 4.406967e-03 4.407288e-03 4.510469e-03 
     6.5                1.838976e-03 2.040070e-03 1.918363e-03 1.965348e-03 3.287836e-06 4.126795e-03 1.923134e-03 2.236842e-03 2.237120e-03 6.287376e-03 6.287746e-03 6.097539e-03 
     7.5                2.237782e-03 2.544938e-03 2.359018e-03 2.430799e-03 3.759361e-06 5.614658e-03 2.365708e-03 2.812792e-03 2.812791e-03 8.175065e-03 8.169180e-03 7.517835e-03 
     8.5                2.625249e-03 3.003310e-03 2.758279e-03 2.847206e-03 4.345047e-06 7.081380e-03 2.767972e-03 3.351314e-03 3.351642e-03 9.982808e-03 9.999112e-03 8.822399e-03 
     9.5                2.959473e-03 3.336686e-03 3.100246e-03 3.188095e-03 4.394835e-06 8.503682e-03 3.109971e-03 3.822690e-03 3.822970e-03 1.165425e-02 1.166312e-02 9.884153e-03 
    10.5                3.268826e-03 3.620258e-03 3.407514e-03 3.489212e-03 4.277612e-06 9.914719e-03 3.397064e-03 4.263825e-03 4.264261e-03 1.325648e-02 1.325863e-02 1.082808e-02 
    11.5                3.579262e-03 3.924235e-03 3.702479e-03 3.783351e-03 4.504742e-06 1.157245e-02 3.700077e-03 4.721640e-03 4.721790e-03 1.507951e-02 1.509193e-02 1.177232e-02 
    12.5                3.730151e-03 4.213816e-03 3.916859e-03 4.029909e-03 4.640192e-06 1.283587e-02 3.921744e-03 5.047860e-03 5.048263e-03 1.645492e-02 1.645511e-02 1.247993e-02 
    13.5                3.787738e-03 4.357611e-03 3.981891e-03 4.115079e-03 4.504159e-06 1.394089e-02 3.999739e-03 5.178665e-03 5.179135e-03 1.753114e-02 1.755885e-02 1.275536e-02 
    14.5                3.847063e-03 4.318132e-03 4.016867e-03 4.127404e-03 4.309195e-06 1.456228e-02 4.022358e-03 5.229484e-03 5.229744e-03 1.809942e-02 1.811245e-02 1.280906e-02 
    15.5                3.954968e-03 4.441896e-03 4.119655e-03 4.233069e-03 4.013389e-06 1.574629e-02 4.134739e-03 5.340525e-03 5.341128e-03 1.925277e-02 1.927031e-02 1.315300e-02 
    16.5                3.960648e-03 4.410020e-03 4.136786e-03 4.242072e-03 3.774939e-06 1.606051e-02 4.130162e-03 5.357665e-03 5.358196e-03 1.952412e-02 1.952289e-02 1.315442e-02 
    17.5                3.966896e-03 4.462457e-03 4.143374e-03 4.258562e-03 3.646640e-06 1.653410e-02 4.155633e-03 5.326825e-03 5.327331e-03 1.994022e-02 1.995329e-02 1.321732e-02 
    18.5                4.023202e-03 4.428174e-03 4.172517e-03 4.267405e-03 3.501181e-06 1.703836e-02 4.171549e-03 5.288512e-03 5.288769e-03 2.038390e-02 2.038667e-02 1.326635e-02 
    19.5                4.011151e-03 4.414385e-03 4.154405e-03 4.247373e-03 3.323186e-06 1.716856e-02 4.170987e-03 5.174865e-03 5.175711e-03 2.042796e-02 2.043537e-02 1.321882e-02 
    20.5                3.909632e-03 4.331854e-03 4.073923e-03 4.172623e-03 3.021469e-06 1.698194e-02 4.068629e-03 4.986953e-03 4.987277e-03 2.012021e-02 2.011994e-02 1.295107e-02 
    21.5                3.930780e-03 4.234630e-03 4.042431e-03 4.113306e-03 2.599180e-06 1.711291e-02 4.037552e-03 4.840991e-03 4.841339e-03 2.014970e-02 2.015075e-02 1.281930e-02 
    22.5                3.884127e-03 4.279151e-03 4.044881e-03 4.136402e-03 2.394466e-06 1.739818e-02 4.054737e-03 4.717030e-03 4.717582e-03 2.037626e-02 2.036326e-02 1.283399e-02 
    23.5                3.686485e-03 4.112373e-03 3.821783e-03 3.920858e-03 2.239826e-06 1.647771e-02 3.835556e-03 4.417951e-03 4.418581e-03 1.926946e-02 1.929538e-02 1.220762e-02 
    24.5                3.616255e-03 3.840371e-03 3.703707e-03 3.755824e-03 2.059423e-06 1.579986e-02 3.692097e-03 4.153525e-03 4.153720e-03 1.845439e-02 1.845753e-02 1.171464e-02 
    25.5                3.508204e-03 3.751026e-03 3.612377e-03 3.668792e-03 1.884124e-06 1.544629e-02 3.593447e-03 3.927109e-03 3.927540e-03 1.800186e-02 1.799575e-02 1.141862e-02 
    26.5                3.433967e-03 3.654541e-03 3.517271e-03 3.568673e-03 1.681570e-06 1.487978e-02 3.513649e-03 3.718130e-03 3.718674e-03 1.734860e-02 1.735012e-02 1.113283e-02 
    27.5                3.287749e-03 3.614668e-03 3.404878e-03 3.480980e-03 1.339119e-06 1.429898e-02 3.415223e-03 3.509086e-03 3.509220e-03 1.666368e-02 1.666980e-02 1.082542e-02 
    28.5                3.190690e-03 3.447251e-03 3.284674e-03 3.344688e-03 1.040169e-06 1.368308e-02 3.284075e-03 3.245385e-03 3.245846e-03 1.592789e-02 1.593559e-02 1.042004e-02 
    29.5                2.979310e-03 3.303124e-03 3.107991e-03 3.182272e-03 9.147351e-07 1.295556e-02 3.116217e-03 2.941544e-03 2.941999e-03 1.506020e-02 1.506238e-02 9.874381e-03 
    30.5                2.872260e-03 3.089882e-03 2.936380e-03 2.987570e-03 8.265786e-07 1.235408e-02 2.939597e-03 2.724527e-03 2.724585e-03 1.430512e-02 1.431828e-02 9.335190e-03 
    31.5                2.871181e-03 2.967825e-03 2.909613e-03 2.933405e-03 6.848753e-07 1.197780e-02 2.899704e-03 2.559787e-03 2.560189e-03 1.388031e-02 1.387733e-02 9.178366e-03 
    32.5                2.774126e-03 2.906284e-03 2.781314e-03 2.812145e-03 5.630777e-07 1.124973e-02 2.792932e-03 2.349113e-03 2.349428e-03 1.307915e-02 1.310697e-02 8.855948e-03 
    33.5                2.807031e-03 2.858736e-03 2.769917e-03 2.782015e-03 4.475569e-07 1.087069e-02 2.781773e-03 2.170575e-03 2.170791e-03 1.269081e-02 1.273781e-02 8.809442e-03 
    34.5                2.773426e-03 2.940200e-03 2.798004e-03 2.837562e-03 3.219307e-07 1.094939e-02 2.822497e-03 2.083798e-03 2.084071e-03 1.277787e-02 1.281492e-02 8.915676e-03 
    35.5                2.694603e-03 2.793212e-03 2.703485e-03 2.727261e-03 2.317997e-07 1.008357e-02 2.709124e-03 1.946056e-03 1.946335e-03 1.188048e-02 1.190338e-02 8.574150e-03 
    36.5                2.695490e-03 2.695985e-03 2.741275e-03 2.740881e-03 1.587162e-07 9.835481e-03 2.707742e-03 1.816640e-03 1.816884e-03 1.166951e-02 1.162703e-02 8.538948e-03 
    37.5                2.642557e-03 2.929145e-03 2.782547e-03 2.848648e-03 1.121782e-07 9.939285e-03 2.774705e-03 1.759333e-03 1.759521e-03 1.184114e-02 1.181092e-02 8.800580e-03 
    38.5                2.725454e-03 3.026938e-03 2.813179e-03 2.886295e-03 7.813409e-08 9.710049e-03 2.849039e-03 1.687885e-03 1.688180e-03 1.168282e-02 1.170394e-02 8.995528e-03 
    39.5                2.805928e-03 3.079212e-03 2.901043e-03 2.964266e-03 5.386774e-08 9.632144e-03 2.938989e-03 1.637219e-03 1.637429e-03 1.170586e-02 1.171160e-02 9.227220e-03 
    40.5                2.931002e-03 2.899562e-03 2.957877e-03 2.951199e-03 3.253071e-08 9.443502e-03 2.911811e-03 1.569445e-03 1.569846e-03 1.155977e-02 1.151337e-02 9.218816e-03 
    41.5                3.162348e-03 2.999687e-03 3.151732e-03 3.117748e-03 1.567890e-08 9.478122e-03 3.094936e-03 1.550626e-03 1.550811e-03 1.181110e-02 1.174631e-02 9.757953e-03 
    42.5                3.203814e-03 3.230060e-03 3.204523e-03 3.210974e-03 4.051668e-09 9.227097e-03 3.212885e-03 1.543336e-03 1.543476e-03 1.170132e-02 1.171781e-02 1.009010e-02 
    43.5                3.277552e-03 3.203198e-03 3.203140e-03 3.182323e-03 2.137049e-10 8.790161e-03 3.181059e-03 1.495985e-03 1.495976e-03 1.133299e-02 1.139203e-02 1.009967e-02 
    44.5                3.600270e-03 3.410087e-03 3.494071e-03 3.449330e-03 1.135689e-10 9.158395e-03 3.486208e-03 1.543084e-03 1.543341e-03 1.199654e-02 1.203181e-02 1.095821e-02 
    45.5                3.561579e-03 3.792073e-03 3.563675e-03 3.617363e-03 1.169840e-10 9.191869e-03 3.608324e-03 1.546322e-03 1.546524e-03 1.216903e-02 1.228667e-02 1.140340e-02 
    46.5                3.663787e-03 3.703666e-03 3.618215e-03 3.628997e-03 1.265991e-07 8.942575e-03 3.643963e-03 1.511626e-03 1.511867e-03 1.202217e-02 1.212291e-02 1.147708e-02 
    47.5                3.869887e-03 3.780950e-03 3.843134e-03 3.823711e-03 2.584730e-07 8.870604e-03 3.810810e-03 1.533772e-03 1.534060e-03 1.229777e-02 1.228838e-02 1.203766e-02 
    48.5                4.154252e-03 4.100624e-03 4.054343e-03 4.039362e-03 3.554814e-07 8.828848e-03 4.084943e-03 1.581914e-03 1.581852e-03 1.259210e-02 1.269969e-02 1.284120e-02 
    49.5                4.680086e-03 4.316413e-03 4.473540e-03 4.390397e-03 1.769674e-07 9.116729e-03 4.432864e-03 1.640411e-03 1.640466e-03 1.337511e-02 1.346869e-02 1.403144e-02 
    50.5                5.291492e-03 4.599083e-03 5.063077e-03 4.902144e-03 6.683213e-08 9.450405e-03 4.945798e-03 1.723432e-03 1.723677e-03 1.444607e-02 1.439902e-02 1.558876e-02 
    51.5                5.859300e-03 5.265001e-03 5.712170e-03 5.572658e-03 1.066429e-07 9.750415e-03 5.628529e-03 1.807758e-03 1.808066e-03 1.570922e-02 1.559467e-02 1.760899e-02 
    52.5                5.865322e-03 5.860963e-03 5.990251e-03 5.992636e-03 2.044127e-07 9.548749e-03 5.944580e-03 1.855453e-03 1.855440e-03 1.614818e-02 1.596086e-02 1.863069e-02 
    53.5                5.720899e-03 6.231518e-03 6.000726e-03 6.121308e-03 2.060636e-07 9.111745e-03 6.027585e-03 1.871675e-03 1.871901e-03 1.598685e-02 1.585236e-02 1.890919e-02 
    54.5                5.626978e-03 6.221228e-03 5.865432e-03 6.003274e-03 1.139508e-07 8.618144e-03 5.957452e-03 1.852599e-03 1.853069e-03 1.544926e-02 1.542858e-02 1.862256e-02 
    55.5                5.724750e-03 6.084556e-03 5.761478e-03 5.841893e-03 1.256489e-07 8.217508e-03 5.823371e-03 1.825600e-03 1.825766e-03 1.497020e-02 1.512610e-02 1.838097e-02 
    56.5                5.554485e-03 5.844704e-03 5.668449e-03 5.735194e-03 1.065827e-07 7.805721e-03 5.716833e-03 1.783066e-03 1.783237e-03 1.453332e-02 1.452081e-02 1.790723e-02 
    57.5                5.041170e-03 5.594229e-03 5.292439e-03 5.419964e-03 4.550343e-08 7.080259e-03 5.332189e-03 1.693322e-03 1.693386e-03 1.348026e-02 1.342136e-02 1.676656e-02 
    58.5                4.718977e-03 5.288206e-03 4.935622e-03 5.070357e-03 6.968306e-08 6.396939e-03 4.999203e-03 1.566846e-03 1.566953e-03 1.245101e-02 1.245141e-02 1.571642e-02 
    59.5                4.555059e-03 5.006648e-03 4.692841e-03 4.797525e-03 1.752900e-07 5.893723e-03 4.770537e-03 1.439361e-03 1.439664e-03 1.169483e-02 1.175181e-02 1.495804e-02 
    60.5                4.168609e-03 4.776358e-03 4.386156e-03 4.525402e-03 3.103839e-07 5.328107e-03 4.466164e-03 1.286641e-03 1.286936e-03 1.085381e-02 1.088038e-02 1.402389e-02 
    61.5                3.665609e-03 4.368758e-03 3.915785e-03 4.076454e-03 2.599314e-07 4.556692e-03 4.038003e-03 1.126820e-03 1.126898e-03 9.603876e-03 9.636865e-03 1.259117e-02 
    62.5                3.088846e-03 3.873343e-03 3.360999e-03 3.543522e-03 1.859686e-07 3.771446e-03 3.453619e-03 9.615488e-04 9.616404e-04 8.202125e-03 8.242240e-03 1.088869e-02 
    63.5                2.437420e-03 3.199109e-03 2.762779e-03 2.939770e-03 1.110207e-07 2.974622e-03 2.827757e-03 7.909385e-04 7.909999e-04 6.686269e-03 6.633403e-03 8.900350e-03 
    64.5                1.980544e-03 2.633883e-03 2.222153e-03 2.372790e-03 8.588534e-08 2.351988e-03 2.294446e-03 6.268576e-04 6.269619e-04 5.362968e-03 5.380007e-03 7.234700e-03 
    65.5                1.527951e-03 2.054595e-03 1.766273e-03 1.887772e-03 9.207244e-08 1.771701e-03 1.810590e-03 4.732695e-04 4.733250e-04 4.208370e-03 4.148327e-03 5.683853e-03 
    66.5                1.112466e-03 1.622879e-03 1.329725e-03 1.448388e-03 9.029248e-08 1.286271e-03 1.375795e-03 3.392552e-04 3.392908e-04 3.169357e-03 3.130129e-03 4.330802e-03 
    67.5                7.202751e-04 1.178790e-03 9.145916e-04 1.021087e-03 8.176105e-08 8.440328e-04 9.520742e-04 2.208269e-04 2.208850e-04 2.181204e-03 2.148517e-03 3.012000e-03 
    68.5                4.113335e-04 8.000244e-04 5.641650e-04 6.536210e-04 6.215403e-08 4.956886e-04 6.017350e-04 1.270983e-04 1.271066e-04 1.355069e-03 1.349221e-03 1.908001e-03 
    69.5                1.850125e-04 4.882226e-04 3.003060e-04 3.703617e-04 5.510424e-08 2.491669e-04 3.290601e-04 6.192612e-05 6.193841e-05 7.361621e-04 7.368937e-04 1.054784e-03 
    70.5                5.753377e-05 2.424428e-04 1.201027e-04 1.625909e-04 6.602483e-08 9.465402e-05 1.393503e-04 2.355699e-05 2.356026e-05 3.067141e-04 3.213173e-04 4.575655e-04 
    71.5                1.044412e-05 8.509105e-05 3.225274e-05 4.965027e-05 6.470125e-08 2.352838e-05 3.825316e-05 6.036168e-06 6.036841e-06 8.773392e-05 9.984436e-05 1.393589e-04 
    72.5                4.718901e-07 1.608897e-05 4.241740e-06 7.923916e-06 3.102246e-08 2.644103e-06 5.632152e-06 8.832172e-07 8.842976e-07 1.280526e-05 1.688362e-05 2.257446e-05 
    73.5                2.047152e-11 1.475452e-06 1.893803e-07 5.364624e-07 6.292071e-09 8.378326e-08 3.246107e-07 4.259326e-08 4.255439e-08 7.418752e-07 1.479888e-06 1.732551e-06 
    74.5                0.000000e+00 0.000000e+00 0.000000e+00 0.000000e+00 0.000000e+00 0.000000e+00 0.000000e+00 0.000000e+00 0.000000e+00 0.000000e+00 0.000000e+00 0.000000e+00 
    75.5                0.000000e+00 0.000000e+00 0.000000e+00 0.000000e+00 0.000000e+00 0.000000e+00 0.000000e+00 0.000000e+00 0.000000e+00 0.000000e+00 0.000000e+00 0.000000e+00 
    76.5                0.000000e+00 0.000000e+00 0.000000e+00 0.000000e+00 0.000000e+00 0.000000e+00 0.000000e+00 0.000000e+00 0.000000e+00 0.000000e+00 0.000000e+00 0.000000e+00 
    77.5                0.000000e+00 0.000000e+00 0.000000e+00 0.000000e+00 0.000000e+00 0.000000e+00 0.000000e+00 0.000000e+00 0.000000e+00 0.000000e+00 0.000000e+00 0.000000e+00 
    78.5                0.000000e+00 0.000000e+00 0.000000e+00 0.000000e+00 0.000000e+00 0.000000e+00 0.000000e+00 0.000000e+00 0.000000e+00 0.000000e+00 0.000000e+00 0.000000e+00 
    79.5                0.000000e+00 0.000000e+00 0.000000e+00 0.000000e+00 0.000000e+00 0.000000e+00 0.000000e+00 0.000000e+00 0.000000e+00 0.000000e+00 0.000000e+00 0.000000e+00 


