# 80 rows of flux data
# 12 columns of flux data
# 
# total cross-sectional flux  2.107451e+00 /m^2/yr
#
#                             +x ram      -x wake      +y port -y starboard    +z zenith     -z nadir        Earth          Sun     anti-Sun      rot (x)      rot (y)      rot (z) 
# average speed (km/s)         24.04        24.04        24.73        18.84        22.49        24.21        24.04        24.30        24.30        23.16        23.66        23.89 
# total flux (#/m2/yr)  6.598949e-01 6.596449e-01 9.432343e-01 2.045858e-01 6.388936e-01 1.181786e-03 6.542160e-01 9.211891e-01 9.209398e-01 1.393768e+00 1.592509e+00 1.942524e+00 
# velocity (km/s)
     0.5                0.000000e+00 0.000000e+00 0.000000e+00 0.000000e+00 0.000000e+00 0.000000e+00 0.000000e+00 0.000000e+00 0.000000e+00 0.000000e+00 0.000000e+00 0.000000e+00 
     1.5                0.000000e+00 0.000000e+00 0.000000e+00 0.000000e+00 0.000000e+00 0.000000e+00 0.000000e+00 0.000000e+00 0.000000e+00 0.000000e+00 0.000000e+00 0.000000e+00 
     2.5                1.017211e-06 1.056032e-06 4.482466e-06 0.000000e+00 3.899215e-06 0.000000e+00 1.047973e-06 7.815451e-07 7.706209e-07 6.010389e-06 4.603350e-06 5.144352e-06 
     3.5                7.791977e-05 7.869216e-05 1.495280e-04 5.781653e-06 1.236892e-04 3.966991e-08 7.839193e-05 5.770258e-05 5.774518e-05 2.110072e-04 2.192235e-04 2.458605e-04 
     4.5                4.067988e-04 4.077905e-04 6.944643e-04 7.687241e-05 5.910599e-04 4.835443e-07 4.058959e-04 3.181890e-04 3.178741e-04 1.056017e-03 1.113368e-03 1.248469e-03 
     5.5                1.253102e-03 1.255416e-03 1.816045e-03 3.862781e-04 1.759855e-03 1.731994e-06 1.250176e-03 1.069350e-03 1.068822e-03 3.108682e-03 3.381588e-03 3.708396e-03 
     6.5                2.576095e-03 2.577273e-03 3.362515e-03 1.260810e-03 3.512680e-03 3.719372e-06 2.566303e-03 2.299482e-03 2.299249e-03 6.421497e-03 6.858895e-03 7.685587e-03 
     7.5                4.558631e-03 4.560571e-03 5.972671e-03 2.399695e-03 6.309704e-03 6.809968e-06 4.541260e-03 4.221140e-03 4.219388e-03 1.160109e-02 1.220678e-02 1.373603e-02 
     8.5                7.150005e-03 7.150779e-03 8.933623e-03 4.003354e-03 9.506532e-03 1.133972e-05 7.119583e-03 6.825497e-03 6.824357e-03 1.772829e-02 1.885407e-02 2.140262e-02 
     9.5                9.573617e-03 9.572531e-03 1.099572e-02 5.882116e-03 1.260124e-02 1.543132e-05 9.522986e-03 9.803040e-03 9.800333e-03 2.338918e-02 2.517343e-02 2.832252e-02 
    10.5                1.187017e-02 1.186895e-02 1.344054e-02 8.096977e-03 1.579353e-02 1.956654e-05 1.179986e-02 1.315579e-02 1.315359e-02 2.966830e-02 3.131580e-02 3.553777e-02 
    11.5                1.395002e-02 1.394477e-02 1.561579e-02 9.808644e-03 1.857890e-02 2.238746e-05 1.385676e-02 1.638083e-02 1.637808e-02 3.488424e-02 3.678261e-02 4.187352e-02 
    12.5                1.539397e-02 1.538702e-02 1.742240e-02 1.100212e-02 2.033565e-02 2.534499e-05 1.527793e-02 1.924003e-02 1.923654e-02 3.864556e-02 4.055846e-02 4.650768e-02 
    13.5                1.711977e-02 1.711571e-02 2.041003e-02 1.147294e-02 2.239299e-02 2.838675e-05 1.698561e-02 2.239977e-02 2.239431e-02 4.289592e-02 4.498313e-02 5.191175e-02 
    14.5                1.897387e-02 1.897022e-02 2.330796e-02 1.194859e-02 2.383937e-02 3.239565e-05 1.881797e-02 2.558052e-02 2.557631e-02 4.663013e-02 4.922560e-02 5.749782e-02 
    15.5                2.069130e-02 2.068203e-02 2.606090e-02 1.194005e-02 2.475366e-02 3.595205e-05 2.051005e-02 2.860116e-02 2.859558e-02 4.950732e-02 5.290202e-02 6.235947e-02 
    16.5                2.224162e-02 2.223650e-02 2.870676e-02 1.187664e-02 2.558242e-02 3.960649e-05 2.204545e-02 3.126559e-02 3.125789e-02 5.215150e-02 5.619652e-02 6.682256e-02 
    17.5                2.357175e-02 2.356494e-02 3.136082e-02 1.152498e-02 2.608399e-02 4.259126e-05 2.335670e-02 3.382095e-02 3.381320e-02 5.428808e-02 5.888064e-02 7.074591e-02 
    18.5                2.473000e-02 2.471860e-02 3.339303e-02 1.099406e-02 2.619256e-02 4.547344e-05 2.449718e-02 3.588361e-02 3.587489e-02 5.551212e-02 6.101061e-02 7.375815e-02 
    19.5                2.551829e-02 2.551024e-02 3.505410e-02 1.055642e-02 2.625379e-02 4.751714e-05 2.527863e-02 3.737753e-02 3.736845e-02 5.648839e-02 6.246812e-02 7.597267e-02 
    20.5                2.623174e-02 2.622615e-02 3.682518e-02 1.001226e-02 2.615054e-02 4.883074e-05 2.598487e-02 3.866310e-02 3.865315e-02 5.729032e-02 6.368845e-02 7.805975e-02 
    21.5                2.709456e-02 2.708737e-02 3.895231e-02 9.168080e-03 2.630012e-02 5.050540e-05 2.683636e-02 4.018909e-02 4.017865e-02 5.832206e-02 6.532006e-02 8.043861e-02 
    22.5                2.789269e-02 2.788410e-02 4.051237e-02 8.707536e-03 2.641808e-02 5.204381e-05 2.762667e-02 4.142862e-02 4.141720e-02 5.920418e-02 6.684750e-02 8.258089e-02 
    23.5                2.824965e-02 2.824081e-02 4.149606e-02 8.098765e-03 2.599359e-02 5.294909e-05 2.798045e-02 4.192758e-02 4.191638e-02 5.910806e-02 6.722034e-02 8.344202e-02 
    24.5                2.840861e-02 2.839939e-02 4.230603e-02 7.360152e-03 2.555346e-02 5.319043e-05 2.813865e-02 4.211323e-02 4.210160e-02 5.873319e-02 6.724924e-02 8.375384e-02 
    25.5                2.837789e-02 2.836789e-02 4.270563e-02 6.561565e-03 2.492228e-02 5.273891e-05 2.811031e-02 4.192597e-02 4.191394e-02 5.780864e-02 6.680832e-02 8.340804e-02 
    26.5                2.779561e-02 2.778474e-02 4.204641e-02 5.731020e-03 2.389484e-02 5.165065e-05 2.753590e-02 4.085620e-02 4.084470e-02 5.574657e-02 6.515796e-02 8.135812e-02 
    27.5                2.703264e-02 2.702266e-02 4.143235e-02 4.983176e-03 2.293673e-02 4.952982e-05 2.678177e-02 3.964099e-02 3.963006e-02 5.383275e-02 6.318846e-02 7.909197e-02 
    28.5                2.618213e-02 2.617137e-02 4.037193e-02 4.258629e-03 2.187812e-02 4.769032e-05 2.594227e-02 3.817250e-02 3.816058e-02 5.152448e-02 6.101852e-02 7.638268e-02 
    29.5                2.503038e-02 2.502010e-02 3.883332e-02 3.632556e-03 2.062297e-02 4.526506e-05 2.480374e-02 3.629456e-02 3.628329e-02 4.878839e-02 5.816531e-02 7.288552e-02 
    30.5                2.372631e-02 2.371635e-02 3.699930e-02 3.025644e-03 1.928361e-02 4.256751e-05 2.351525e-02 3.417328e-02 3.416391e-02 4.576582e-02 5.499044e-02 6.893181e-02 
    31.5                2.220584e-02 2.219543e-02 3.474596e-02 2.423032e-03 1.780400e-02 3.945869e-05 2.201092e-02 3.171077e-02 3.170079e-02 4.231587e-02 5.133266e-02 6.431664e-02 
    32.5                2.044461e-02 2.043434e-02 3.203514e-02 1.915735e-03 1.618752e-02 3.611321e-05 2.026916e-02 2.891253e-02 2.890341e-02 3.851330e-02 4.715077e-02 5.904198e-02 
    33.5                1.843686e-02 1.842743e-02 2.889197e-02 1.499611e-03 1.444718e-02 3.250204e-05 1.828191e-02 2.582349e-02 2.581462e-02 3.438010e-02 4.244045e-02 5.309729e-02 
    34.5                1.641186e-02 1.640218e-02 2.571728e-02 1.171923e-03 1.274035e-02 2.875072e-05 1.627603e-02 2.277130e-02 2.276449e-02 3.032917e-02 3.771037e-02 4.715897e-02 
    35.5                1.436561e-02 1.435718e-02 2.252482e-02 8.801626e-04 1.105460e-02 2.513076e-05 1.424940e-02 1.973058e-02 1.972372e-02 2.631929e-02 3.295866e-02 4.120414e-02 
    36.5                1.239959e-02 1.239165e-02 1.940400e-02 6.404907e-04 9.439615e-03 2.163282e-05 1.230181e-02 1.682905e-02 1.682410e-02 2.247627e-02 2.838912e-02 3.546145e-02 
    37.5                1.046520e-02 1.045773e-02 1.634729e-02 4.536316e-04 7.896509e-03 1.828690e-05 1.038411e-02 1.403935e-02 1.403500e-02 1.879465e-02 2.392261e-02 2.985921e-02 
    38.5                8.601791e-03 8.594833e-03 1.331951e-02 3.161337e-04 6.395903e-03 1.516498e-05 8.536887e-03 1.136656e-02 1.136267e-02 1.522084e-02 1.961098e-02 2.442657e-02 
    39.5                6.774392e-03 6.768803e-03 1.037581e-02 2.094924e-04 4.956135e-03 1.213431e-05 6.725313e-03 8.803974e-03 8.801023e-03 1.179290e-02 1.540179e-02 1.913631e-02 
    40.5                5.084771e-03 5.079580e-03 7.683036e-03 1.326225e-04 3.654344e-03 9.283131e-06 5.048635e-03 6.494301e-03 6.492040e-03 8.692890e-03 1.152534e-02 1.427745e-02 
    41.5                3.631129e-03 3.627281e-03 5.428004e-03 7.943307e-05 2.572251e-03 6.745618e-06 3.606147e-03 4.563072e-03 4.561148e-03 6.116329e-03 8.211064e-03 1.014821e-02 
    42.5                2.472630e-03 2.469283e-03 3.628321e-03 4.479856e-05 1.714288e-03 4.694595e-06 2.455802e-03 3.044726e-03 3.043913e-03 4.074415e-03 5.570910e-03 6.857419e-03 
    43.5                1.540621e-03 1.538192e-03 2.176529e-03 2.440769e-05 1.026303e-03 3.061341e-06 1.530502e-03 1.846068e-03 1.845380e-03 2.439156e-03 3.449129e-03 4.212408e-03 
    44.5                8.419092e-04 8.402855e-04 1.134296e-03 1.171449e-05 5.338967e-04 1.774045e-06 8.365185e-04 9.781563e-04 9.778176e-04 1.269055e-03 1.870571e-03 2.262598e-03 
    45.5                3.801153e-04 3.792931e-04 4.716022e-04 4.851824e-06 2.217269e-04 8.754032e-07 3.778544e-04 4.237080e-04 4.233695e-04 5.273844e-04 8.345422e-04 9.931631e-04 
    46.5                1.251716e-04 1.248150e-04 1.386860e-04 1.642157e-06 6.518430e-05 3.332629e-07 1.244199e-04 1.329829e-04 1.329791e-04 1.553010e-04 2.711024e-04 3.163015e-04 
    47.5                2.883970e-05 2.879057e-05 2.723300e-05 3.917953e-07 1.279498e-05 8.991957e-08 2.871314e-05 2.892728e-05 2.892292e-05 3.057063e-05 6.141845e-05 6.977801e-05 
    48.5                3.734708e-06 3.739758e-06 2.485910e-06 5.794445e-08 1.169261e-06 1.445081e-08 3.731593e-06 3.408194e-06 3.405765e-06 2.817275e-06 7.725165e-06 8.347550e-06 
    49.5                9.106994e-08 9.258913e-08 2.207244e-08 2.349760e-09 1.059849e-08 6.039395e-10 9.233306e-08 7.462553e-08 7.475117e-08 2.722910e-08 1.842696e-07 1.863485e-07 
    50.5                0.000000e+00 0.000000e+00 0.000000e+00 0.000000e+00 0.000000e+00 0.000000e+00 0.000000e+00 0.000000e+00 0.000000e+00 0.000000e+00 0.000000e+00 0.000000e+00 
    51.5                0.000000e+00 0.000000e+00 0.000000e+00 0.000000e+00 0.000000e+00 0.000000e+00 0.000000e+00 0.000000e+00 0.000000e+00 0.000000e+00 0.000000e+00 0.000000e+00 
    52.5                0.000000e+00 0.000000e+00 0.000000e+00 0.000000e+00 0.000000e+00 0.000000e+00 0.000000e+00 0.000000e+00 0.000000e+00 0.000000e+00 0.000000e+00 0.000000e+00 
    53.5                0.000000e+00 0.000000e+00 0.000000e+00 0.000000e+00 0.000000e+00 0.000000e+00 0.000000e+00 0.000000e+00 0.000000e+00 0.000000e+00 0.000000e+00 0.000000e+00 
    54.5                0.000000e+00 0.000000e+00 0.000000e+00 0.000000e+00 0.000000e+00 0.000000e+00 0.000000e+00 0.000000e+00 0.000000e+00 0.000000e+00 0.000000e+00 0.000000e+00 
    55.5                0.000000e+00 0.000000e+00 0.000000e+00 0.000000e+00 0.000000e+00 0.000000e+00 0.000000e+00 0.000000e+00 0.000000e+00 0.000000e+00 0.000000e+00 0.000000e+00 
    56.5                0.000000e+00 0.000000e+00 0.000000e+00 0.000000e+00 0.000000e+00 0.000000e+00 0.000000e+00 0.000000e+00 0.000000e+00 0.000000e+00 0.000000e+00 0.000000e+00 
    57.5                0.000000e+00 0.000000e+00 0.000000e+00 0.000000e+00 0.000000e+00 0.000000e+00 0.000000e+00 0.000000e+00 0.000000e+00 0.000000e+00 0.000000e+00 0.000000e+00 
    58.5                0.000000e+00 0.000000e+00 0.000000e+00 0.000000e+00 0.000000e+00 0.000000e+00 0.000000e+00 0.000000e+00 0.000000e+00 0.000000e+00 0.000000e+00 0.000000e+00 
    59.5                0.000000e+00 0.000000e+00 0.000000e+00 0.000000e+00 0.000000e+00 0.000000e+00 0.000000e+00 0.000000e+00 0.000000e+00 0.000000e+00 0.000000e+00 0.000000e+00 
    60.5                0.000000e+00 0.000000e+00 0.000000e+00 0.000000e+00 0.000000e+00 0.000000e+00 0.000000e+00 0.000000e+00 0.000000e+00 0.000000e+00 0.000000e+00 0.000000e+00 
    61.5                0.000000e+00 0.000000e+00 0.000000e+00 0.000000e+00 0.000000e+00 0.000000e+00 0.000000e+00 0.000000e+00 0.000000e+00 0.000000e+00 0.000000e+00 0.000000e+00 
    62.5                0.000000e+00 0.000000e+00 0.000000e+00 0.000000e+00 0.000000e+00 0.000000e+00 0.000000e+00 0.000000e+00 0.000000e+00 0.000000e+00 0.000000e+00 0.000000e+00 
    63.5                0.000000e+00 0.000000e+00 0.000000e+00 0.000000e+00 0.000000e+00 0.000000e+00 0.000000e+00 0.000000e+00 0.000000e+00 0.000000e+00 0.000000e+00 0.000000e+00 
    64.5                0.000000e+00 0.000000e+00 0.000000e+00 0.000000e+00 0.000000e+00 0.000000e+00 0.000000e+00 0.000000e+00 0.000000e+00 0.000000e+00 0.000000e+00 0.000000e+00 
    65.5                0.000000e+00 0.000000e+00 0.000000e+00 0.000000e+00 0.000000e+00 0.000000e+00 0.000000e+00 0.000000e+00 0.000000e+00 0.000000e+00 0.000000e+00 0.000000e+00 
    66.5                0.000000e+00 0.000000e+00 0.000000e+00 0.000000e+00 0.000000e+00 0.000000e+00 0.000000e+00 0.000000e+00 0.000000e+00 0.000000e+00 0.000000e+00 0.000000e+00 
    67.5                0.000000e+00 0.000000e+00 0.000000e+00 0.000000e+00 0.000000e+00 0.000000e+00 0.000000e+00 0.000000e+00 0.000000e+00 0.000000e+00 0.000000e+00 0.000000e+00 
    68.5                0.000000e+00 0.000000e+00 0.000000e+00 0.000000e+00 0.000000e+00 0.000000e+00 0.000000e+00 0.000000e+00 0.000000e+00 0.000000e+00 0.000000e+00 0.000000e+00 
    69.5                0.000000e+00 0.000000e+00 0.000000e+00 0.000000e+00 0.000000e+00 0.000000e+00 0.000000e+00 0.000000e+00 0.000000e+00 0.000000e+00 0.000000e+00 0.000000e+00 
    70.5                0.000000e+00 0.000000e+00 0.000000e+00 0.000000e+00 0.000000e+00 0.000000e+00 0.000000e+00 0.000000e+00 0.000000e+00 0.000000e+00 0.000000e+00 0.000000e+00 
    71.5                0.000000e+00 0.000000e+00 0.000000e+00 0.000000e+00 0.000000e+00 0.000000e+00 0.000000e+00 0.000000e+00 0.000000e+00 0.000000e+00 0.000000e+00 0.000000e+00 
    72.5                0.000000e+00 0.000000e+00 0.000000e+00 0.000000e+00 0.000000e+00 0.000000e+00 0.000000e+00 0.000000e+00 0.000000e+00 0.000000e+00 0.000000e+00 0.000000e+00 
    73.5                0.000000e+00 0.000000e+00 0.000000e+00 0.000000e+00 0.000000e+00 0.000000e+00 0.000000e+00 0.000000e+00 0.000000e+00 0.000000e+00 0.000000e+00 0.000000e+00 
    74.5                0.000000e+00 0.000000e+00 0.000000e+00 0.000000e+00 0.000000e+00 0.000000e+00 0.000000e+00 0.000000e+00 0.000000e+00 0.000000e+00 0.000000e+00 0.000000e+00 
    75.5                0.000000e+00 0.000000e+00 0.000000e+00 0.000000e+00 0.000000e+00 0.000000e+00 0.000000e+00 0.000000e+00 0.000000e+00 0.000000e+00 0.000000e+00 0.000000e+00 
    76.5                0.000000e+00 0.000000e+00 0.000000e+00 0.000000e+00 0.000000e+00 0.000000e+00 0.000000e+00 0.000000e+00 0.000000e+00 0.000000e+00 0.000000e+00 0.000000e+00 
    77.5                0.000000e+00 0.000000e+00 0.000000e+00 0.000000e+00 0.000000e+00 0.000000e+00 0.000000e+00 0.000000e+00 0.000000e+00 0.000000e+00 0.000000e+00 0.000000e+00 
    78.5                0.000000e+00 0.000000e+00 0.000000e+00 0.000000e+00 0.000000e+00 0.000000e+00 0.000000e+00 0.000000e+00 0.000000e+00 0.000000e+00 0.000000e+00 0.000000e+00 
    79.5                0.000000e+00 0.000000e+00 0.000000e+00 0.000000e+00 0.000000e+00 0.000000e+00 0.000000e+00 0.000000e+00 0.000000e+00 0.000000e+00 0.000000e+00 0.000000e+00 


