# 80 rows of flux data
# 12 columns of flux data
# 
# total cross-sectional flux  2.333430e+00 /m^2/yr
#
#                             +x ram      -x wake      +y port -y starboard    +z zenith     -z nadir        Earth          Sun     anti-Sun      rot (x)      rot (y)      rot (z) 
# average speed (km/s)         24.50        24.50        25.49        18.30        23.32        24.18        24.50        24.96        24.96        23.95        24.20        24.48 
# total flux (#/m2/yr)  7.122286e-01 7.118783e-01 1.117599e+00 1.898795e-01 7.251778e-01 1.168170e-03 7.062220e-01 1.019957e+00 1.020188e+00 1.579285e+00 1.739377e+00 2.147914e+00 
# velocity (km/s)
     0.5                0.000000e+00 0.000000e+00 0.000000e+00 0.000000e+00 0.000000e+00 0.000000e+00 0.000000e+00 0.000000e+00 0.000000e+00 0.000000e+00 0.000000e+00 0.000000e+00 
     1.5                0.000000e+00 0.000000e+00 0.000000e+00 0.000000e+00 0.000000e+00 0.000000e+00 0.000000e+00 0.000000e+00 0.000000e+00 0.000000e+00 0.000000e+00 0.000000e+00 
     2.5                1.274472e-06 1.262479e-06 0.000000e+00 5.391449e-06 8.008129e-07 2.156549e-09 1.267093e-06 9.147410e-07 9.048627e-07 5.478749e-06 2.769359e-06 6.209524e-06 
     3.5                5.827390e-05 5.833824e-05 6.221173e-06 8.780521e-05 3.402556e-05 1.294974e-07 5.811251e-05 3.517745e-05 3.523483e-05 1.065535e-04 1.260583e-04 1.665721e-04 
     4.5                3.177985e-04 3.185301e-04 1.831078e-04 3.642522e-04 2.759056e-04 5.350559e-07 3.168367e-04 2.028608e-04 2.027828e-04 6.555358e-04 7.359437e-04 9.306669e-04 
     5.5                1.067293e-03 1.069695e-03 8.035177e-04 1.050055e-03 1.078435e-03 1.745315e-06 1.064032e-03 7.676510e-04 7.671223e-04 2.318877e-03 2.566660e-03 3.136310e-03 
     6.5                2.447619e-03 2.450322e-03 2.560760e-03 1.942366e-03 2.879900e-03 3.675629e-06 2.439661e-03 2.001778e-03 2.002036e-03 5.811143e-03 6.152292e-03 7.383500e-03 
     7.5                4.276423e-03 4.278793e-03 4.629965e-03 3.402529e-03 5.274820e-03 6.853565e-06 4.260905e-03 3.775374e-03 3.775093e-03 1.048223e-02 1.094482e-02 1.302906e-02 
     8.5                6.965188e-03 6.966822e-03 7.699669e-03 5.144291e-03 8.526113e-03 1.102767e-05 6.937921e-03 6.335723e-03 6.336001e-03 1.687911e-02 1.780229e-02 2.102985e-02 
     9.5                9.973940e-03 9.975620e-03 1.194455e-02 6.800215e-03 1.260851e-02 1.520290e-05 9.932130e-03 9.586818e-03 9.588228e-03 2.466185e-02 2.572193e-02 3.038008e-02 
    10.5                1.242868e-02 1.242367e-02 1.588767e-02 8.179889e-03 1.676520e-02 1.928029e-05 1.236796e-02 1.324971e-02 1.325119e-02 3.209325e-02 3.280447e-02 3.843327e-02 
    11.5                1.455673e-02 1.455502e-02 1.828578e-02 9.284299e-03 1.998786e-02 2.197151e-05 1.446990e-02 1.693718e-02 1.693902e-02 3.739204e-02 3.874166e-02 4.452757e-02 
    12.5                1.624814e-02 1.624430e-02 2.114352e-02 9.831670e-03 2.248220e-02 2.516252e-05 1.613932e-02 2.024896e-02 2.025233e-02 4.201723e-02 4.348183e-02 4.986699e-02 
    13.5                1.766786e-02 1.766366e-02 2.305313e-02 1.048106e-02 2.399826e-02 2.811340e-05 1.753677e-02 2.309867e-02 2.310142e-02 4.529800e-02 4.705389e-02 5.409728e-02 
    14.5                1.957136e-02 1.956343e-02 2.567192e-02 1.075540e-02 2.543055e-02 3.204031e-05 1.941617e-02 2.635566e-02 2.635936e-02 4.873970e-02 5.139520e-02 5.935759e-02 
    15.5                2.130343e-02 2.130082e-02 2.880032e-02 1.079134e-02 2.647648e-02 3.595996e-05 2.112779e-02 2.945797e-02 2.946326e-02 5.198976e-02 5.516959e-02 6.459470e-02 
    16.5                2.305267e-02 2.304310e-02 3.219966e-02 1.064203e-02 2.767505e-02 3.931371e-05 2.285578e-02 3.256522e-02 3.257079e-02 5.543459e-02 5.903073e-02 6.986985e-02 
    17.5                2.445917e-02 2.445329e-02 3.483838e-02 1.036818e-02 2.817025e-02 4.244841e-05 2.424384e-02 3.515507e-02 3.516120e-02 5.765045e-02 6.186517e-02 7.394373e-02 
    18.5                2.579415e-02 2.578551e-02 3.748925e-02 9.993136e-03 2.847735e-02 4.499360e-05 2.556184e-02 3.766542e-02 3.767217e-02 5.961271e-02 6.440715e-02 7.784506e-02 
    19.5                2.685905e-02 2.684746e-02 3.996546e-02 9.573238e-03 2.890218e-02 4.699266e-05 2.661177e-02 3.981449e-02 3.982197e-02 6.147516e-02 6.655716e-02 8.112231e-02 
    20.5                2.740812e-02 2.739807e-02 4.150332e-02 8.843397e-03 2.874641e-02 4.856690e-05 2.715243e-02 4.103649e-02 4.104596e-02 6.191298e-02 6.746522e-02 8.265205e-02 
    21.5                2.815143e-02 2.814148e-02 4.299311e-02 8.396738e-03 2.844815e-02 5.009053e-05 2.788760e-02 4.226483e-02 4.227456e-02 6.242896e-02 6.858332e-02 8.464420e-02 
    22.5                2.914829e-02 2.913677e-02 4.496614e-02 7.927045e-03 2.878961e-02 5.173686e-05 2.887359e-02 4.387500e-02 4.388438e-02 6.378492e-02 7.060150e-02 8.739687e-02 
    23.5                2.973739e-02 2.972510e-02 4.683365e-02 7.213726e-03 2.879429e-02 5.264433e-05 2.945660e-02 4.498320e-02 4.499411e-02 6.459573e-02 7.164991e-02 8.922466e-02 
    24.5                2.988959e-02 2.987717e-02 4.772286e-02 6.476878e-03 2.837788e-02 5.280381e-05 2.960747e-02 4.525356e-02 4.526395e-02 6.429008e-02 7.167814e-02 8.960319e-02 
    25.5                2.993779e-02 2.992411e-02 4.842474e-02 5.687638e-03 2.788485e-02 5.225295e-05 2.965724e-02 4.526118e-02 4.527185e-02 6.372863e-02 7.146447e-02 8.962104e-02 
    26.5                2.974964e-02 2.973511e-02 4.882986e-02 4.986898e-03 2.729414e-02 5.111192e-05 2.947266e-02 4.497766e-02 4.498839e-02 6.291460e-02 7.076402e-02 8.909788e-02 
    27.5                2.899143e-02 2.897553e-02 4.827215e-02 4.259565e-03 2.636018e-02 4.904858e-05 2.872371e-02 4.382644e-02 4.383867e-02 6.107083e-02 6.881910e-02 8.690779e-02 
    28.5                2.817410e-02 2.815892e-02 4.713682e-02 3.689099e-03 2.522236e-02 4.717532e-05 2.791636e-02 4.240394e-02 4.241319e-02 5.877152e-02 6.665214e-02 8.428999e-02 
    29.5                2.720178e-02 2.718572e-02 4.603161e-02 3.064081e-03 2.416678e-02 4.471429e-05 2.695597e-02 4.083798e-02 4.084960e-02 5.650464e-02 6.423284e-02 8.140366e-02 
    30.5                2.589306e-02 2.587890e-02 4.424906e-02 2.508111e-03 2.282289e-02 4.194645e-05 2.566230e-02 3.875997e-02 3.876942e-02 5.357288e-02 6.104676e-02 7.752565e-02 
    31.5                2.445882e-02 2.444269e-02 4.219743e-02 1.999027e-03 2.140213e-02 3.879674e-05 2.424354e-02 3.646912e-02 3.647877e-02 5.040505e-02 5.756803e-02 7.326714e-02 
    32.5                2.283117e-02 2.281605e-02 3.969323e-02 1.589261e-03 1.985613e-02 3.552438e-05 2.263350e-02 3.387169e-02 3.388149e-02 4.687860e-02 5.366503e-02 6.842408e-02 
    33.5                2.097369e-02 2.095671e-02 3.680491e-02 1.258196e-03 1.820977e-02 3.192462e-05 2.079534e-02 3.096326e-02 3.097123e-02 4.306666e-02 4.927066e-02 6.296540e-02 
    34.5                1.885430e-02 1.884075e-02 3.334809e-02 9.731927e-04 1.636032e-02 2.822264e-05 1.869751e-02 2.768834e-02 2.769592e-02 3.872514e-02 4.428661e-02 5.669299e-02 
    35.5                1.673143e-02 1.671639e-02 2.980709e-02 7.236279e-04 1.449904e-02 2.459946e-05 1.659480e-02 2.443307e-02 2.444080e-02 3.434886e-02 3.928425e-02 5.037218e-02 
    36.5                1.461016e-02 1.459729e-02 2.618858e-02 5.251027e-04 1.263950e-02 2.119195e-05 1.449373e-02 2.118961e-02 2.119475e-02 2.996596e-02 3.428861e-02 4.403878e-02 
    37.5                1.257867e-02 1.256663e-02 2.269438e-02 3.756574e-04 1.088266e-02 1.789485e-05 1.248073e-02 1.810902e-02 1.811478e-02 2.581037e-02 2.951590e-02 3.797207e-02 
    38.5                1.058906e-02 1.057748e-02 1.924228e-02 2.618136e-04 9.177838e-03 1.480652e-05 1.050852e-02 1.514203e-02 1.514682e-02 2.177140e-02 2.485278e-02 3.203369e-02 
    39.5                8.658942e-03 8.649189e-03 1.592007e-02 1.735034e-04 7.556730e-03 1.181276e-05 8.595033e-03 1.231522e-02 1.231917e-02 1.792632e-02 2.034807e-02 2.630432e-02 
    40.5                6.778130e-03 6.768884e-03 1.262955e-02 1.099357e-04 5.972087e-03 8.999814e-06 6.729607e-03 9.588814e-03 9.591978e-03 1.416432e-02 1.595695e-02 2.069836e-02 
    41.5                5.052515e-03 5.045366e-03 9.559831e-03 6.592780e-05 4.506870e-03 6.520899e-06 5.017572e-03 7.118494e-03 7.120525e-03 1.068575e-02 1.192401e-02 1.552727e-02 
    42.5                3.589076e-03 3.583839e-03 6.870187e-03 3.803824e-05 3.231361e-03 4.520494e-06 3.565050e-03 5.027886e-03 5.029260e-03 7.658783e-03 8.486555e-03 1.108473e-02 
    43.5                2.424558e-03 2.420042e-03 4.725691e-03 2.043379e-05 2.218913e-03 2.927904e-06 2.408860e-03 3.384003e-03 3.385532e-03 5.256387e-03 5.750862e-03 7.545672e-03 
    44.5                1.486262e-03 1.483403e-03 2.998111e-03 9.727998e-06 1.405557e-03 1.678972e-06 1.477113e-03 2.084947e-03 2.085866e-03 3.328256e-03 3.550273e-03 4.698558e-03 
    45.5                7.961772e-04 7.943192e-04 1.672318e-03 4.032113e-06 7.831372e-04 8.142730e-07 7.915727e-04 1.126153e-03 1.126505e-03 1.853594e-03 1.918128e-03 2.564693e-03 
    46.5                3.480589e-04 3.471648e-04 7.796044e-04 1.320161e-06 3.647509e-04 3.026798e-07 3.462273e-04 5.033181e-04 5.036751e-04 8.630468e-04 8.509176e-04 1.156567e-03 
    47.5                1.093641e-04 1.091002e-04 2.677525e-04 2.988655e-07 1.251748e-04 7.891964e-08 1.088613e-04 1.645803e-04 1.646485e-04 2.961220e-04 2.736952e-04 3.809418e-04 
    48.5                2.374116e-05 2.368922e-05 6.442313e-05 4.209672e-08 3.009819e-05 1.202450e-08 2.365087e-05 3.753472e-05 3.756130e-05 7.119248e-05 6.112413e-05 8.746414e-05 
    49.5                2.780176e-06 2.783192e-06 8.931267e-06 1.363089e-09 4.169585e-06 4.269731e-10 2.773895e-06 4.843710e-06 4.850444e-06 9.861870e-06 7.540641e-06 1.129511e-05 
    50.5                5.333683e-08 5.405376e-08 2.560852e-07 0.000000e+00 1.194993e-07 0.000000e+00 5.351938e-08 1.241001e-07 1.238040e-07 2.826652e-07 1.703234e-07 2.862614e-07 
    51.5                0.000000e+00 0.000000e+00 0.000000e+00 0.000000e+00 0.000000e+00 0.000000e+00 0.000000e+00 0.000000e+00 0.000000e+00 0.000000e+00 0.000000e+00 0.000000e+00 
    52.5                0.000000e+00 0.000000e+00 0.000000e+00 0.000000e+00 0.000000e+00 0.000000e+00 0.000000e+00 0.000000e+00 0.000000e+00 0.000000e+00 0.000000e+00 0.000000e+00 
    53.5                0.000000e+00 0.000000e+00 0.000000e+00 0.000000e+00 0.000000e+00 0.000000e+00 0.000000e+00 0.000000e+00 0.000000e+00 0.000000e+00 0.000000e+00 0.000000e+00 
    54.5                0.000000e+00 0.000000e+00 0.000000e+00 0.000000e+00 0.000000e+00 0.000000e+00 0.000000e+00 0.000000e+00 0.000000e+00 0.000000e+00 0.000000e+00 0.000000e+00 
    55.5                0.000000e+00 0.000000e+00 0.000000e+00 0.000000e+00 0.000000e+00 0.000000e+00 0.000000e+00 0.000000e+00 0.000000e+00 0.000000e+00 0.000000e+00 0.000000e+00 
    56.5                0.000000e+00 0.000000e+00 0.000000e+00 0.000000e+00 0.000000e+00 0.000000e+00 0.000000e+00 0.000000e+00 0.000000e+00 0.000000e+00 0.000000e+00 0.000000e+00 
    57.5                0.000000e+00 0.000000e+00 0.000000e+00 0.000000e+00 0.000000e+00 0.000000e+00 0.000000e+00 0.000000e+00 0.000000e+00 0.000000e+00 0.000000e+00 0.000000e+00 
    58.5                0.000000e+00 0.000000e+00 0.000000e+00 0.000000e+00 0.000000e+00 0.000000e+00 0.000000e+00 0.000000e+00 0.000000e+00 0.000000e+00 0.000000e+00 0.000000e+00 
    59.5                0.000000e+00 0.000000e+00 0.000000e+00 0.000000e+00 0.000000e+00 0.000000e+00 0.000000e+00 0.000000e+00 0.000000e+00 0.000000e+00 0.000000e+00 0.000000e+00 
    60.5                0.000000e+00 0.000000e+00 0.000000e+00 0.000000e+00 0.000000e+00 0.000000e+00 0.000000e+00 0.000000e+00 0.000000e+00 0.000000e+00 0.000000e+00 0.000000e+00 
    61.5                0.000000e+00 0.000000e+00 0.000000e+00 0.000000e+00 0.000000e+00 0.000000e+00 0.000000e+00 0.000000e+00 0.000000e+00 0.000000e+00 0.000000e+00 0.000000e+00 
    62.5                0.000000e+00 0.000000e+00 0.000000e+00 0.000000e+00 0.000000e+00 0.000000e+00 0.000000e+00 0.000000e+00 0.000000e+00 0.000000e+00 0.000000e+00 0.000000e+00 
    63.5                0.000000e+00 0.000000e+00 0.000000e+00 0.000000e+00 0.000000e+00 0.000000e+00 0.000000e+00 0.000000e+00 0.000000e+00 0.000000e+00 0.000000e+00 0.000000e+00 
    64.5                0.000000e+00 0.000000e+00 0.000000e+00 0.000000e+00 0.000000e+00 0.000000e+00 0.000000e+00 0.000000e+00 0.000000e+00 0.000000e+00 0.000000e+00 0.000000e+00 
    65.5                0.000000e+00 0.000000e+00 0.000000e+00 0.000000e+00 0.000000e+00 0.000000e+00 0.000000e+00 0.000000e+00 0.000000e+00 0.000000e+00 0.000000e+00 0.000000e+00 
    66.5                0.000000e+00 0.000000e+00 0.000000e+00 0.000000e+00 0.000000e+00 0.000000e+00 0.000000e+00 0.000000e+00 0.000000e+00 0.000000e+00 0.000000e+00 0.000000e+00 
    67.5                0.000000e+00 0.000000e+00 0.000000e+00 0.000000e+00 0.000000e+00 0.000000e+00 0.000000e+00 0.000000e+00 0.000000e+00 0.000000e+00 0.000000e+00 0.000000e+00 
    68.5                0.000000e+00 0.000000e+00 0.000000e+00 0.000000e+00 0.000000e+00 0.000000e+00 0.000000e+00 0.000000e+00 0.000000e+00 0.000000e+00 0.000000e+00 0.000000e+00 
    69.5                0.000000e+00 0.000000e+00 0.000000e+00 0.000000e+00 0.000000e+00 0.000000e+00 0.000000e+00 0.000000e+00 0.000000e+00 0.000000e+00 0.000000e+00 0.000000e+00 
    70.5                0.000000e+00 0.000000e+00 0.000000e+00 0.000000e+00 0.000000e+00 0.000000e+00 0.000000e+00 0.000000e+00 0.000000e+00 0.000000e+00 0.000000e+00 0.000000e+00 
    71.5                0.000000e+00 0.000000e+00 0.000000e+00 0.000000e+00 0.000000e+00 0.000000e+00 0.000000e+00 0.000000e+00 0.000000e+00 0.000000e+00 0.000000e+00 0.000000e+00 
    72.5                0.000000e+00 0.000000e+00 0.000000e+00 0.000000e+00 0.000000e+00 0.000000e+00 0.000000e+00 0.000000e+00 0.000000e+00 0.000000e+00 0.000000e+00 0.000000e+00 
    73.5                0.000000e+00 0.000000e+00 0.000000e+00 0.000000e+00 0.000000e+00 0.000000e+00 0.000000e+00 0.000000e+00 0.000000e+00 0.000000e+00 0.000000e+00 0.000000e+00 
    74.5                0.000000e+00 0.000000e+00 0.000000e+00 0.000000e+00 0.000000e+00 0.000000e+00 0.000000e+00 0.000000e+00 0.000000e+00 0.000000e+00 0.000000e+00 0.000000e+00 
    75.5                0.000000e+00 0.000000e+00 0.000000e+00 0.000000e+00 0.000000e+00 0.000000e+00 0.000000e+00 0.000000e+00 0.000000e+00 0.000000e+00 0.000000e+00 0.000000e+00 
    76.5                0.000000e+00 0.000000e+00 0.000000e+00 0.000000e+00 0.000000e+00 0.000000e+00 0.000000e+00 0.000000e+00 0.000000e+00 0.000000e+00 0.000000e+00 0.000000e+00 
    77.5                0.000000e+00 0.000000e+00 0.000000e+00 0.000000e+00 0.000000e+00 0.000000e+00 0.000000e+00 0.000000e+00 0.000000e+00 0.000000e+00 0.000000e+00 0.000000e+00 
    78.5                0.000000e+00 0.000000e+00 0.000000e+00 0.000000e+00 0.000000e+00 0.000000e+00 0.000000e+00 0.000000e+00 0.000000e+00 0.000000e+00 0.000000e+00 0.000000e+00 
    79.5                0.000000e+00 0.000000e+00 0.000000e+00 0.000000e+00 0.000000e+00 0.000000e+00 0.000000e+00 0.000000e+00 0.000000e+00 0.000000e+00 0.000000e+00 0.000000e+00 


