# 80 rows of flux data
# 12 columns of flux data
# 
# total cross-sectional flux  1.024718e+00 /m^2/yr
#
#                             +x ram      -x wake      +y port -y starboard    +z zenith     -z nadir        Earth          Sun     anti-Sun      rot (x)      rot (y)      rot (z) 
# average speed (km/s)         37.52        37.53        36.08        39.22        31.64        35.10        37.58        27.96        27.96        33.86        33.88        37.37 
# total flux (#/m2/yr)  2.313594e-01 2.314125e-01 3.023220e-01 1.717049e-01 6.190129e-01 1.016123e-04 2.307590e-01 1.653966e-01 1.654096e-01 8.506591e-01 8.390530e-01 7.357508e-01 
# velocity (km/s)
     0.5                0.000000e+00 0.000000e+00 0.000000e+00 0.000000e+00 0.000000e+00 0.000000e+00 0.000000e+00 0.000000e+00 0.000000e+00 0.000000e+00 0.000000e+00 0.000000e+00 
     1.5                0.000000e+00 0.000000e+00 0.000000e+00 0.000000e+00 0.000000e+00 0.000000e+00 0.000000e+00 0.000000e+00 0.000000e+00 0.000000e+00 0.000000e+00 0.000000e+00 
     2.5                8.935686e-05 8.960144e-05 3.355676e-05 1.164719e-04 1.638016e-04 5.124396e-08 8.911889e-05 8.586121e-05 8.588346e-05 2.469805e-04 2.676732e-04 2.588368e-04 
     3.5                4.519249e-04 4.519300e-04 3.559170e-04 4.744601e-04 7.647824e-04 4.714372e-07 4.497210e-04 4.511167e-04 4.509450e-04 1.262078e-03 1.306932e-03 1.360855e-03 
     4.5                9.182228e-04 9.182251e-04 9.211898e-04 8.361998e-04 1.620835e-03 1.075641e-06 9.136141e-04 9.711064e-04 9.711130e-04 2.673343e-03 2.710760e-03 2.820957e-03 
     5.5                1.412696e-03 1.412664e-03 1.571464e-03 1.203967e-03 2.692156e-03 1.658644e-06 1.404979e-03 1.573538e-03 1.573424e-03 4.317264e-03 4.323087e-03 4.397219e-03 
     6.5                1.899664e-03 1.899647e-03 2.288260e-03 1.514466e-03 4.012277e-03 2.145425e-06 1.889051e-03 2.181302e-03 2.181495e-03 6.159202e-03 6.129610e-03 5.968813e-03 
     7.5                2.343816e-03 2.343026e-03 2.938408e-03 1.801360e-03 5.451110e-03 2.435278e-06 2.329220e-03 2.747387e-03 2.747327e-03 8.036775e-03 7.958297e-03 7.400997e-03 
     8.5                2.749414e-03 2.748951e-03 3.576300e-03 2.071763e-03 6.870577e-03 2.693591e-06 2.732556e-03 3.285012e-03 3.285258e-03 9.858892e-03 9.726369e-03 8.753347e-03 
     9.5                3.083818e-03 3.083122e-03 4.105655e-03 2.227909e-03 8.244796e-03 2.944263e-06 3.063884e-03 3.746233e-03 3.746317e-03 1.149552e-02 1.134755e-02 9.816517e-03 
    10.5                3.388710e-03 3.388526e-03 4.590023e-03 2.442085e-03 9.629199e-03 2.856240e-06 3.366388e-03 4.199445e-03 4.199701e-03 1.314514e-02 1.293081e-02 1.084248e-02 
    11.5                3.694832e-03 3.694062e-03 5.143493e-03 2.564328e-03 1.123644e-02 2.926274e-06 3.669611e-03 4.655405e-03 4.655541e-03 1.496548e-02 1.473050e-02 1.185525e-02 
    12.5                3.915827e-03 3.915212e-03 5.530602e-03 2.666256e-03 1.246430e-02 2.948199e-06 3.888972e-03 4.968490e-03 4.968626e-03 1.633298e-02 1.605088e-02 1.258887e-02 
    13.5                3.994602e-03 3.993283e-03 5.866174e-03 2.651049e-03 1.352707e-02 2.866896e-06 3.967862e-03 5.099963e-03 5.100183e-03 1.743003e-02 1.709480e-02 1.296289e-02 
    14.5                4.025459e-03 4.024344e-03 5.818924e-03 2.692828e-03 1.417411e-02 2.833116e-06 3.998081e-03 5.162375e-03 5.162611e-03 1.800568e-02 1.769966e-02 1.300800e-02 
    15.5                4.138615e-03 4.138219e-03 6.151253e-03 2.674706e-03 1.531641e-02 2.685769e-06 4.111579e-03 5.276971e-03 5.277482e-03 1.916005e-02 1.881971e-02 1.343038e-02 
    16.5                4.133830e-03 4.133013e-03 6.154112e-03 2.681792e-03 1.564112e-02 2.532395e-06 4.106253e-03 5.291284e-03 5.291565e-03 1.942943e-02 1.908545e-02 1.343358e-02 
    17.5                4.163849e-03 4.164109e-03 6.256578e-03 2.662818e-03 1.610160e-02 2.361470e-06 4.137595e-03 5.270009e-03 5.270433e-03 1.986863e-02 1.951075e-02 1.354537e-02 
    18.5                4.180389e-03 4.179604e-03 6.274975e-03 2.661813e-03 1.661110e-02 2.284490e-06 4.152832e-03 5.233896e-03 5.234174e-03 2.031051e-02 1.994893e-02 1.358227e-02 
    19.5                4.180470e-03 4.180656e-03 6.258662e-03 2.603262e-03 1.674298e-02 2.097595e-06 4.154079e-03 5.119447e-03 5.119708e-03 2.033833e-02 2.002098e-02 1.352780e-02 
    20.5                4.074458e-03 4.074485e-03 6.173625e-03 2.530965e-03 1.655535e-02 1.984794e-06 4.048738e-03 4.927890e-03 4.928447e-03 2.004674e-02 1.967644e-02 1.323428e-02 
    21.5                4.049926e-03 4.049895e-03 6.063525e-03 2.533491e-03 1.671376e-02 1.771075e-06 4.024724e-03 4.796443e-03 4.796787e-03 2.008362e-02 1.975922e-02 1.311364e-02 
    22.5                4.070152e-03 4.070401e-03 6.196388e-03 2.437188e-03 1.696432e-02 1.610836e-06 4.046328e-03 4.681374e-03 4.681551e-03 2.030904e-02 1.996592e-02 1.317087e-02 
    23.5                3.850620e-03 3.850864e-03 5.899027e-03 2.345489e-03 1.606922e-02 1.482101e-06 3.828053e-03 4.386401e-03 4.387145e-03 1.925099e-02 1.888191e-02 1.252464e-02 
    24.5                3.707490e-03 3.707387e-03 5.564787e-03 2.265313e-03 1.543141e-02 1.349606e-06 3.684858e-03 4.122253e-03 4.122528e-03 1.841530e-02 1.810558e-02 1.197168e-02 
    25.5                3.609777e-03 3.610585e-03 5.459160e-03 2.198336e-03 1.507734e-02 1.227029e-06 3.588895e-03 3.900764e-03 3.901214e-03 1.796411e-02 1.764554e-02 1.168161e-02 
    26.5                3.526296e-03 3.526561e-03 5.212949e-03 2.158683e-03 1.454559e-02 1.095332e-06 3.505523e-03 3.687384e-03 3.687535e-03 1.729804e-02 1.703685e-02 1.132701e-02 
    27.5                3.425926e-03 3.426084e-03 5.110200e-03 2.058740e-03 1.395670e-02 9.178279e-07 3.406150e-03 3.476922e-03 3.477118e-03 1.661581e-02 1.634206e-02 1.101141e-02 
    28.5                3.301201e-03 3.302235e-03 4.890077e-03 2.013367e-03 1.336583e-02 7.966532e-07 3.283616e-03 3.229553e-03 3.230248e-03 1.591696e-02 1.564195e-02 1.060611e-02 
    29.5                3.131852e-03 3.132089e-03 4.705542e-03 1.848989e-03 1.263457e-02 6.951952e-07 3.115240e-03 2.924762e-03 2.925060e-03 1.503939e-02 1.477092e-02 1.006214e-02 
    30.5                2.952339e-03 2.952469e-03 4.378704e-03 1.786968e-03 1.207295e-02 5.777510e-07 2.936942e-03 2.707409e-03 2.707588e-03 1.429354e-02 1.405025e-02 9.479571e-03 
    31.5                2.916242e-03 2.916385e-03 4.239143e-03 1.797785e-03 1.171718e-02 4.740344e-07 2.901376e-03 2.547211e-03 2.547653e-03 1.387619e-02 1.364913e-02 9.322311e-03 
    32.5                2.808845e-03 2.810427e-03 4.100224e-03 1.749670e-03 1.099545e-02 4.354786e-07 2.796887e-03 2.340294e-03 2.340399e-03 1.309814e-02 1.287024e-02 9.007046e-03 
    33.5                2.793343e-03 2.794559e-03 3.941491e-03 1.783893e-03 1.064711e-02 4.264510e-07 2.781844e-03 2.162336e-03 2.162834e-03 1.270242e-02 1.251834e-02 8.883612e-03 
    34.5                2.835394e-03 2.834806e-03 4.021890e-03 1.782920e-03 1.071336e-02 3.502181e-07 2.822617e-03 2.076059e-03 2.076202e-03 1.278002e-02 1.259143e-02 9.007886e-03 
    35.5                2.719103e-03 2.721519e-03 3.839449e-03 1.752327e-03 9.862072e-03 2.524363e-07 2.710145e-03 1.939796e-03 1.939931e-03 1.188607e-02 1.169895e-02 8.664414e-03 
    36.5                2.718046e-03 2.719063e-03 3.699691e-03 1.785819e-03 9.643281e-03 1.927016e-07 2.708558e-03 1.811621e-03 1.811894e-03 1.163370e-02 1.149617e-02 8.579824e-03 
    37.5                2.786602e-03 2.788287e-03 3.852740e-03 1.868737e-03 9.736537e-03 1.398448e-07 2.779099e-03 1.757418e-03 1.757617e-03 1.183945e-02 1.164455e-02 8.874443e-03 
    38.5                2.859967e-03 2.861639e-03 3.723539e-03 2.049543e-03 9.560227e-03 1.234182e-07 2.852642e-03 1.688285e-03 1.688686e-03 1.169641e-02 1.157911e-02 9.024767e-03 
    39.5                2.947678e-03 2.950773e-03 3.960914e-03 1.971416e-03 9.423434e-03 1.111053e-07 2.942581e-03 1.637224e-03 1.637364e-03 1.169453e-02 1.156453e-02 9.285273e-03 
    40.5                2.925122e-03 2.925414e-03 3.878009e-03 2.057517e-03 9.265130e-03 1.390090e-07 2.917100e-03 1.570211e-03 1.570332e-03 1.155919e-02 1.138756e-02 9.260667e-03 
    41.5                3.106741e-03 3.107952e-03 3.902293e-03 2.340544e-03 9.340029e-03 2.103309e-07 3.100074e-03 1.552697e-03 1.553077e-03 1.179156e-02 1.167893e-02 9.784715e-03 
    42.5                3.229760e-03 3.229497e-03 4.173028e-03 2.312991e-03 9.032806e-03 2.967113e-07 3.222360e-03 1.546758e-03 1.546864e-03 1.172265e-02 1.159707e-02 1.016663e-02 
    43.5                3.195757e-03 3.197864e-03 4.013534e-03 2.494543e-03 8.649321e-03 2.592394e-07 3.191566e-03 1.498589e-03 1.498675e-03 1.142204e-02 1.125211e-02 1.013303e-02 
    44.5                3.495345e-03 3.496320e-03 4.169932e-03 2.733180e-03 9.038175e-03 2.205585e-07 3.489780e-03 1.543909e-03 1.544061e-03 1.199494e-02 1.196349e-02 1.091521e-02 
    45.5                3.618609e-03 3.622184e-03 4.550574e-03 2.760477e-03 9.010909e-03 3.704259e-07 3.617005e-03 1.549189e-03 1.549536e-03 1.226099e-02 1.209487e-02 1.142512e-02 
    46.5                3.660544e-03 3.658466e-03 4.447577e-03 2.874471e-03 8.793048e-03 2.882104e-07 3.653688e-03 1.517104e-03 1.517197e-03 1.210262e-02 1.198266e-02 1.150006e-02 
    47.5                3.820798e-03 3.825033e-03 4.577042e-03 3.136378e-03 8.740388e-03 4.932501e-07 3.820538e-03 1.540229e-03 1.540188e-03 1.235181e-02 1.220948e-02 1.206042e-02 
    48.5                4.095389e-03 4.093997e-03 4.621103e-03 3.477432e-03 8.751346e-03 5.056125e-07 4.089628e-03 1.584861e-03 1.585186e-03 1.264437e-02 1.263808e-02 1.279910e-02 
    49.5                4.442566e-03 4.443472e-03 5.054456e-03 3.867264e-03 9.034499e-03 7.482873e-07 4.440467e-03 1.644493e-03 1.644509e-03 1.348943e-02 1.337751e-02 1.397906e-02 
    50.5                4.956863e-03 4.960346e-03 5.364856e-03 4.512115e-03 9.427140e-03 9.400227e-07 4.956859e-03 1.730777e-03 1.730821e-03 1.449567e-02 1.444109e-02 1.554808e-02 
    51.5                5.658631e-03 5.662759e-03 6.049188e-03 5.102032e-03 9.706811e-03 1.064787e-06 5.661014e-03 1.819232e-03 1.819618e-03 1.573059e-02 1.577947e-02 1.765370e-02 
    52.5                5.994024e-03 5.993065e-03 6.719066e-03 5.234229e-03 9.391966e-03 1.949291e-06 5.995031e-03 1.871761e-03 1.871761e-03 1.622646e-02 1.614322e-02 1.880055e-02 
    53.5                6.064064e-03 6.065061e-03 6.745382e-03 5.362582e-03 8.961983e-03 2.466969e-06 6.068477e-03 1.888428e-03 1.888842e-03 1.609002e-02 1.599179e-02 1.904065e-02 
    54.5                5.977436e-03 5.981826e-03 6.827591e-03 5.018488e-03 8.393502e-03 2.442779e-06 5.985904e-03 1.869379e-03 1.869379e-03 1.550391e-02 1.548650e-02 1.870545e-02 
    55.5                5.856258e-03 5.860375e-03 6.702890e-03 5.161009e-03 8.022404e-03 2.942781e-06 5.864470e-03 1.848354e-03 1.848440e-03 1.528784e-02 1.504886e-02 1.852178e-02 
    56.5                5.758948e-03 5.761203e-03 6.553398e-03 4.972365e-03 7.591769e-03 3.420019e-06 5.765890e-03 1.810294e-03 1.810461e-03 1.474527e-02 1.460660e-02 1.810212e-02 
    57.5                5.370834e-03 5.374118e-03 6.274437e-03 4.564644e-03 6.834748e-03 3.307745e-06 5.379652e-03 1.717904e-03 1.718045e-03 1.365921e-02 1.346600e-02 1.695849e-02 
    58.5                5.031116e-03 5.030334e-03 5.726795e-03 4.374458e-03 6.209458e-03 3.247074e-06 5.036018e-03 1.587388e-03 1.587472e-03 1.261532e-02 1.248867e-02 1.583764e-02 
    59.5                4.794606e-03 4.795742e-03 5.405423e-03 4.163426e-03 5.724979e-03 2.851218e-06 4.800982e-03 1.456077e-03 1.456242e-03 1.184776e-02 1.177036e-02 1.504577e-02 
    60.5                4.480110e-03 4.486709e-03 5.202539e-03 3.817027e-03 5.127104e-03 2.651354e-06 4.492734e-03 1.302220e-03 1.302369e-03 1.099622e-02 1.086944e-02 1.412732e-02 
    61.5                4.061288e-03 4.064265e-03 4.706202e-03 3.370434e-03 4.354102e-03 2.568031e-06 4.069867e-03 1.143788e-03 1.143961e-03 9.723972e-03 9.674090e-03 1.273630e-02 
    62.5                3.475436e-03 3.473309e-03 4.300545e-03 2.783565e-03 3.527424e-03 2.373384e-06 3.479690e-03 9.760362e-04 9.758783e-04 8.366419e-03 8.174448e-03 1.102133e-02 
    63.5                2.841047e-03 2.845100e-03 3.492921e-03 2.295443e-03 2.777375e-03 2.259728e-06 2.850595e-03 8.022236e-04 8.024782e-04 6.787419e-03 6.625021e-03 9.013339e-03 
    64.5                2.307955e-03 2.308100e-03 2.875685e-03 1.841299e-03 2.181573e-03 1.800326e-06 2.312636e-03 6.359396e-04 6.359645e-04 5.481000e-03 5.337981e-03 7.332900e-03 
    65.5                1.827608e-03 1.827574e-03 2.273319e-03 1.441641e-03 1.628344e-03 1.675528e-06 1.831676e-03 4.813558e-04 4.814375e-04 4.271509e-03 4.171473e-03 5.790881e-03 
    66.5                1.386288e-03 1.387153e-03 1.807105e-03 1.032224e-03 1.151277e-03 1.276995e-06 1.390771e-03 3.446759e-04 3.446916e-04 3.219748e-03 3.122623e-03 4.408357e-03 
    67.5                9.565354e-04 9.574247e-04 1.305718e-03 6.793803e-04 7.312508e-04 1.066664e-06 9.602817e-04 2.235121e-04 2.235766e-04 2.215370e-03 2.122904e-03 3.062871e-03 
    68.5                6.063455e-04 6.069337e-04 8.680894e-04 3.965988e-04 4.088683e-04 8.042736e-07 6.090426e-04 1.284033e-04 1.284246e-04 1.387112e-03 1.319782e-03 1.946194e-03 
    69.5                3.337820e-04 3.336109e-04 5.239558e-04 1.935577e-04 1.868126e-04 5.556076e-07 3.352041e-04 6.234824e-05 6.235703e-05 7.686601e-04 7.098781e-04 1.086398e-03 
    70.5                1.396030e-04 1.395716e-04 2.514013e-04 5.713356e-05 5.784479e-05 3.195121e-07 1.403590e-04 2.270304e-05 2.270160e-05 3.227072e-04 2.894817e-04 4.610468e-04 
    71.5                3.545134e-05 3.524544e-05 7.945279e-05 9.102694e-06 9.668419e-06 1.676158e-07 3.555285e-05 5.059315e-06 5.059876e-06 9.034382e-05 7.199089e-05 1.246811e-04 
    72.5                3.803951e-06 3.785563e-06 9.851877e-06 2.152847e-07 4.511819e-07 4.602564e-08 3.832272e-06 4.507201e-07 4.513910e-07 1.012356e-05 7.625483e-06 1.393401e-05 
    73.5                2.059809e-08 1.827760e-08 6.948117e-08 0.000000e+00 1.064737e-10 1.105103e-09 1.923102e-08 1.567002e-09 1.545997e-09 6.949495e-08 3.893057e-08 8.276113e-08 
    74.5                0.000000e+00 0.000000e+00 0.000000e+00 0.000000e+00 0.000000e+00 0.000000e+00 0.000000e+00 0.000000e+00 0.000000e+00 0.000000e+00 0.000000e+00 0.000000e+00 
    75.5                0.000000e+00 0.000000e+00 0.000000e+00 0.000000e+00 0.000000e+00 0.000000e+00 0.000000e+00 0.000000e+00 0.000000e+00 0.000000e+00 0.000000e+00 0.000000e+00 
    76.5                0.000000e+00 0.000000e+00 0.000000e+00 0.000000e+00 0.000000e+00 0.000000e+00 0.000000e+00 0.000000e+00 0.000000e+00 0.000000e+00 0.000000e+00 0.000000e+00 
    77.5                0.000000e+00 0.000000e+00 0.000000e+00 0.000000e+00 0.000000e+00 0.000000e+00 0.000000e+00 0.000000e+00 0.000000e+00 0.000000e+00 0.000000e+00 0.000000e+00 
    78.5                0.000000e+00 0.000000e+00 0.000000e+00 0.000000e+00 0.000000e+00 0.000000e+00 0.000000e+00 0.000000e+00 0.000000e+00 0.000000e+00 0.000000e+00 0.000000e+00 
    79.5                0.000000e+00 0.000000e+00 0.000000e+00 0.000000e+00 0.000000e+00 0.000000e+00 0.000000e+00 0.000000e+00 0.000000e+00 0.000000e+00 0.000000e+00 0.000000e+00 


