# 80 rows of flux data
# 12 columns of flux data
# 
# total cross-sectional flux  2.308278e+00 /m^2/yr
#
#                       +x vernal eq.           -x           +y           -y +z eclip. N. -z eclip. S.        Earth          Sun     anti-Sun      rot (x)      rot (y)      rot (z) 
# average speed (km/s)         24.09        24.71        24.33        24.47        19.82        26.08        25.26        24.79        24.81        23.81        23.81        24.41 
# total flux (#/m2/yr)  6.891639e-01 7.212009e-01 7.021775e-01 7.086210e-01 4.130652e-01 3.343094e-02 1.006802e+00 1.008498e+00 1.015278e+00 1.564327e+00 1.563992e+00 2.215733e+00 
# velocity (km/s)
     0.5                0.000000e+00 0.000000e+00 0.000000e+00 0.000000e+00 0.000000e+00 0.000000e+00 0.000000e+00 0.000000e+00 0.000000e+00 0.000000e+00 0.000000e+00 0.000000e+00 
     1.5                0.000000e+00 0.000000e+00 0.000000e+00 0.000000e+00 0.000000e+00 0.000000e+00 0.000000e+00 0.000000e+00 0.000000e+00 0.000000e+00 0.000000e+00 0.000000e+00 
     2.5                8.031774e-07 1.149973e-06 2.845753e-06 2.877939e-06 2.358729e-06 2.203430e-09 1.352578e-06 6.702289e-07 1.004349e-06 6.269014e-06 3.259517e-06 6.228049e-06 
     3.5                8.320202e-05 6.172002e-05 7.718079e-05 7.428960e-05 7.179470e-05 1.059409e-06 8.207422e-05 4.796883e-05 5.485769e-05 1.776593e-04 1.728195e-04 2.328599e-04 
     4.5                4.962921e-04 2.708419e-04 4.047265e-04 3.632864e-04 3.762997e-04 9.245838e-06 4.580447e-04 2.659364e-04 2.958782e-04 9.221353e-04 9.196373e-04 1.204139e-03 
     5.5                1.376313e-03 8.976894e-04 1.228667e-03 1.129896e-03 1.264605e-03 3.370943e-05 1.449052e-03 9.246245e-04 9.833835e-04 2.902784e-03 2.829994e-03 3.637855e-03 
     6.5                2.825273e-03 2.232531e-03 2.605374e-03 2.469969e-03 2.844363e-03 7.215384e-05 3.115191e-03 2.177784e-03 2.242398e-03 6.323467e-03 6.303172e-03 7.960310e-03 
     7.5                4.788253e-03 4.142828e-03 4.524415e-03 4.389455e-03 5.172302e-03 1.254123e-04 5.437564e-03 4.054882e-03 4.099818e-03 1.121802e-02 1.124896e-02 1.400857e-02 
     8.5                7.321587e-03 6.730744e-03 7.102948e-03 6.968428e-03 8.059519e-03 2.067208e-04 8.684715e-03 6.673425e-03 6.683195e-03 1.762675e-02 1.762127e-02 2.208765e-02 
     9.5                1.001023e-02 9.425829e-03 9.776869e-03 9.641788e-03 1.128384e-02 2.763963e-04 1.194816e-02 9.812582e-03 9.813714e-03 2.442508e-02 2.446583e-02 3.051577e-02 
    10.5                1.248125e-02 1.192350e-02 1.227223e-02 1.214716e-02 1.461567e-02 3.336171e-04 1.477162e-02 1.332446e-02 1.336830e-02 3.103516e-02 3.101440e-02 3.835132e-02 
    11.5                1.447658e-02 1.409204e-02 1.434722e-02 1.424918e-02 1.731405e-02 4.048982e-04 1.746814e-02 1.682140e-02 1.689475e-02 3.657169e-02 3.655296e-02 4.490629e-02 
    12.5                1.599788e-02 1.592306e-02 1.597507e-02 1.594769e-02 1.902567e-02 4.672942e-04 1.955785e-02 1.994777e-02 2.003403e-02 4.071843e-02 4.073774e-02 5.014396e-02 
    13.5                1.781995e-02 1.740874e-02 1.766381e-02 1.756260e-02 2.028297e-02 5.380598e-04 2.170143e-02 2.303148e-02 2.311443e-02 4.457798e-02 4.457469e-02 5.533201e-02 
    14.5                1.965139e-02 1.918091e-02 1.952598e-02 1.940572e-02 2.108614e-02 6.270118e-04 2.428013e-02 2.630157e-02 2.639491e-02 4.844010e-02 4.834862e-02 6.107620e-02 
    15.5                2.131546e-02 2.102042e-02 2.125103e-02 2.117403e-02 2.127489e-02 7.223904e-04 2.678410e-02 2.945363e-02 2.955840e-02 5.172785e-02 5.163606e-02 6.657643e-02 
    16.5                2.306592e-02 2.277420e-02 2.298331e-02 2.290408e-02 2.140001e-02 8.302355e-04 2.931084e-02 3.247514e-02 3.258935e-02 5.497012e-02 5.493774e-02 7.204185e-02 
    17.5                2.436954e-02 2.437439e-02 2.438557e-02 2.437279e-02 2.103767e-02 9.323786e-04 3.155899e-02 3.517684e-02 3.530720e-02 5.737265e-02 5.735846e-02 7.657260e-02 
    18.5                2.549926e-02 2.571297e-02 2.566477e-02 2.569032e-02 2.040415e-02 1.029898e-03 3.365338e-02 3.761135e-02 3.774887e-02 5.936858e-02 5.923044e-02 8.055611e-02 
    19.5                2.635731e-02 2.692741e-02 2.659667e-02 2.669812e-02 1.986344e-02 1.098374e-03 3.528891e-02 3.954111e-02 3.968755e-02 6.085225e-02 6.084754e-02 8.370389e-02 
    20.5                2.707583e-02 2.765242e-02 2.727978e-02 2.738728e-02 1.896348e-02 1.164358e-03 3.666187e-02 4.091771e-02 4.108073e-02 6.164648e-02 6.170271e-02 8.591457e-02 
    21.5                2.805722e-02 2.834423e-02 2.819138e-02 2.823697e-02 1.805908e-02 1.252167e-03 3.836867e-02 4.243993e-02 4.262416e-02 6.278753e-02 6.275657e-02 8.861313e-02 
    22.5                2.892389e-02 2.932769e-02 2.911949e-02 2.918132e-02 1.751791e-02 1.345690e-03 4.013266e-02 4.403485e-02 4.423650e-02 6.429451e-02 6.425046e-02 9.154057e-02 
    23.5                2.931757e-02 3.010086e-02 2.964154e-02 2.978851e-02 1.657968e-02 1.420493e-03 4.131937e-02 4.498734e-02 4.520442e-02 6.484580e-02 6.483591e-02 9.334483e-02 
    24.5                2.953285e-02 3.030765e-02 2.985467e-02 3.000092e-02 1.553411e-02 1.476247e-03 4.213584e-02 4.532513e-02 4.556523e-02 6.473657e-02 6.472415e-02 9.400865e-02 
    25.5                2.949775e-02 3.045670e-02 2.991053e-02 3.009838e-02 1.435139e-02 1.532010e-03 4.283914e-02 4.538170e-02 4.564305e-02 6.433379e-02 6.427936e-02 9.422007e-02 
    26.5                2.902398e-02 3.030062e-02 2.953879e-02 2.979310e-02 1.311413e-02 1.574244e-03 4.302791e-02 4.482578e-02 4.510764e-02 6.314155e-02 6.313675e-02 9.319241e-02 
    27.5                2.829233e-02 2.975524e-02 2.888664e-02 2.918243e-02 1.186877e-02 1.590807e-03 4.259308e-02 4.376994e-02 4.406497e-02 6.139798e-02 6.137730e-02 9.119857e-02 
    28.5                2.745123e-02 2.890282e-02 2.803490e-02 2.832951e-02 1.066938e-02 1.590616e-03 4.201467e-02 4.235836e-02 4.266696e-02 5.926440e-02 5.925346e-02 8.852972e-02 
    29.5                2.634785e-02 2.796182e-02 2.699618e-02 2.732304e-02 9.492777e-03 1.567445e-03 4.100533e-02 4.066947e-02 4.098720e-02 5.680742e-02 5.679691e-02 8.531748e-02 
    30.5                2.496851e-02 2.676333e-02 2.568179e-02 2.605409e-02 8.306802e-03 1.528377e-03 3.959202e-02 3.856272e-02 3.888630e-02 5.383485e-02 5.383130e-02 8.126383e-02 
    31.5                2.344192e-02 2.529076e-02 2.418291e-02 2.456650e-02 7.100764e-03 1.469225e-03 3.791947e-02 3.613013e-02 3.645989e-02 5.047444e-02 5.045907e-02 7.656262e-02 
    32.5                2.163797e-02 2.364220e-02 2.243496e-02 2.285336e-02 5.975293e-03 1.385754e-03 3.580823e-02 3.334579e-02 3.367473e-02 4.668974e-02 4.667940e-02 7.113195e-02 
    33.5                1.959978e-02 2.174988e-02 2.045393e-02 2.090277e-02 4.972295e-03 1.280452e-03 3.312697e-02 3.023374e-02 3.054908e-02 4.248487e-02 4.247743e-02 6.495744e-02 
    34.5                1.741932e-02 1.966445e-02 1.830399e-02 1.877630e-02 4.054804e-03 1.157464e-03 3.009535e-02 2.690862e-02 2.720742e-02 3.797344e-02 3.797567e-02 5.824868e-02 
    35.5                1.530012e-02 1.743060e-02 1.613531e-02 1.658479e-02 3.206228e-03 1.015266e-03 2.694275e-02 2.355597e-02 2.383635e-02 3.340145e-02 3.341099e-02 5.140492e-02 
    36.5                1.314702e-02 1.528179e-02 1.397264e-02 1.442602e-02 2.453739e-03 8.656448e-04 2.374886e-02 2.027125e-02 2.052738e-02 2.889782e-02 2.892590e-02 4.463183e-02 
    37.5                1.109948e-02 1.313339e-02 1.190289e-02 1.233352e-02 1.833711e-03 7.175692e-04 2.052693e-02 1.712570e-02 1.735603e-02 2.459273e-02 2.458788e-02 3.806759e-02 
    38.5                9.103553e-03 1.105794e-02 9.862889e-03 1.027906e-02 1.326190e-03 5.748267e-04 1.728702e-02 1.410230e-02 1.430034e-02 2.038654e-02 2.040493e-02 3.165427e-02 
    39.5                7.152514e-03 9.051359e-03 7.894398e-03 8.298675e-03 9.186914e-04 4.368771e-04 1.403445e-02 1.121711e-02 1.137950e-02 1.635232e-02 1.636189e-02 2.544410e-02 
    40.5                5.357293e-03 7.111805e-03 6.035056e-03 6.409870e-03 6.015327e-04 3.125048e-04 1.087457e-02 8.532057e-03 8.658503e-03 1.254232e-02 1.256525e-02 1.956726e-02 
    41.5                3.823728e-03 5.330357e-03 4.398831e-03 4.721787e-03 3.702047e-04 2.075982e-04 8.010145e-03 6.190004e-03 6.281865e-03 9.175757e-03 9.208254e-03 1.435284e-02 
    42.5                2.587393e-03 3.807397e-03 3.049435e-03 3.311492e-03 2.136372e-04 1.277391e-04 5.617557e-03 4.272381e-03 4.335912e-03 6.389903e-03 6.422913e-03 1.001820e-02 
    43.5                1.610953e-03 2.580938e-03 1.979385e-03 2.187936e-03 1.145573e-04 7.202714e-05 3.687496e-03 2.768192e-03 2.808288e-03 4.181327e-03 4.205299e-03 6.565159e-03 
    44.5                8.809407e-04 1.615791e-03 1.154029e-03 1.312694e-03 5.478474e-05 3.570315e-05 2.172693e-03 1.626123e-03 1.647382e-03 2.472603e-03 2.502288e-03 3.898186e-03 
    45.5                4.015388e-04 8.890561e-04 5.769191e-04 6.826837e-04 2.225098e-05 1.482539e-05 1.101860e-03 8.270913e-04 8.363318e-04 1.261676e-03 1.292453e-03 2.002854e-03 
    46.5                1.371757e-04 4.083224e-04 2.325029e-04 2.915488e-04 7.292309e-06 4.860706e-06 4.455887e-04 3.437376e-04 3.467191e-04 5.246329e-04 5.459988e-04 8.399747e-04 
    47.5                3.269096e-05 1.412092e-04 6.791413e-05 9.193755e-05 1.734181e-06 1.114938e-06 1.309468e-04 1.065820e-04 1.068318e-04 1.599733e-04 1.739875e-04 2.621517e-04 
    48.5                4.888815e-06 3.414821e-05 1.366750e-05 2.020204e-05 2.612788e-07 1.614649e-07 2.635576e-05 2.311906e-05 2.305791e-05 3.388252e-05 3.904541e-05 5.726439e-05 
    49.5                1.768602e-07 4.972502e-06 1.463505e-06 2.554111e-06 2.212021e-08 1.158870e-08 2.824870e-06 2.899080e-06 2.870978e-06 4.018399e-06 5.149712e-06 7.198052e-06 
    50.5                0.000000e+00 1.534311e-07 2.605362e-08 6.382604e-08 3.146807e-10 7.036889e-11 5.335698e-08 7.749797e-08 7.522310e-08 8.988444e-08 1.534321e-07 1.913030e-07 
    51.5                0.000000e+00 0.000000e+00 0.000000e+00 0.000000e+00 0.000000e+00 0.000000e+00 0.000000e+00 0.000000e+00 0.000000e+00 0.000000e+00 0.000000e+00 0.000000e+00 
    52.5                0.000000e+00 0.000000e+00 0.000000e+00 0.000000e+00 0.000000e+00 0.000000e+00 0.000000e+00 0.000000e+00 0.000000e+00 0.000000e+00 0.000000e+00 0.000000e+00 
    53.5                0.000000e+00 0.000000e+00 0.000000e+00 0.000000e+00 0.000000e+00 0.000000e+00 0.000000e+00 0.000000e+00 0.000000e+00 0.000000e+00 0.000000e+00 0.000000e+00 
    54.5                0.000000e+00 0.000000e+00 0.000000e+00 0.000000e+00 0.000000e+00 0.000000e+00 0.000000e+00 0.000000e+00 0.000000e+00 0.000000e+00 0.000000e+00 0.000000e+00 
    55.5                0.000000e+00 0.000000e+00 0.000000e+00 0.000000e+00 0.000000e+00 0.000000e+00 0.000000e+00 0.000000e+00 0.000000e+00 0.000000e+00 0.000000e+00 0.000000e+00 
    56.5                0.000000e+00 0.000000e+00 0.000000e+00 0.000000e+00 0.000000e+00 0.000000e+00 0.000000e+00 0.000000e+00 0.000000e+00 0.000000e+00 0.000000e+00 0.000000e+00 
    57.5                0.000000e+00 0.000000e+00 0.000000e+00 0.000000e+00 0.000000e+00 0.000000e+00 0.000000e+00 0.000000e+00 0.000000e+00 0.000000e+00 0.000000e+00 0.000000e+00 
    58.5                0.000000e+00 0.000000e+00 0.000000e+00 0.000000e+00 0.000000e+00 0.000000e+00 0.000000e+00 0.000000e+00 0.000000e+00 0.000000e+00 0.000000e+00 0.000000e+00 
    59.5                0.000000e+00 0.000000e+00 0.000000e+00 0.000000e+00 0.000000e+00 0.000000e+00 0.000000e+00 0.000000e+00 0.000000e+00 0.000000e+00 0.000000e+00 0.000000e+00 
    60.5                0.000000e+00 0.000000e+00 0.000000e+00 0.000000e+00 0.000000e+00 0.000000e+00 0.000000e+00 0.000000e+00 0.000000e+00 0.000000e+00 0.000000e+00 0.000000e+00 
    61.5                0.000000e+00 0.000000e+00 0.000000e+00 0.000000e+00 0.000000e+00 0.000000e+00 0.000000e+00 0.000000e+00 0.000000e+00 0.000000e+00 0.000000e+00 0.000000e+00 
    62.5                0.000000e+00 0.000000e+00 0.000000e+00 0.000000e+00 0.000000e+00 0.000000e+00 0.000000e+00 0.000000e+00 0.000000e+00 0.000000e+00 0.000000e+00 0.000000e+00 
    63.5                0.000000e+00 0.000000e+00 0.000000e+00 0.000000e+00 0.000000e+00 0.000000e+00 0.000000e+00 0.000000e+00 0.000000e+00 0.000000e+00 0.000000e+00 0.000000e+00 
    64.5                0.000000e+00 0.000000e+00 0.000000e+00 0.000000e+00 0.000000e+00 0.000000e+00 0.000000e+00 0.000000e+00 0.000000e+00 0.000000e+00 0.000000e+00 0.000000e+00 
    65.5                0.000000e+00 0.000000e+00 0.000000e+00 0.000000e+00 0.000000e+00 0.000000e+00 0.000000e+00 0.000000e+00 0.000000e+00 0.000000e+00 0.000000e+00 0.000000e+00 
    66.5                0.000000e+00 0.000000e+00 0.000000e+00 0.000000e+00 0.000000e+00 0.000000e+00 0.000000e+00 0.000000e+00 0.000000e+00 0.000000e+00 0.000000e+00 0.000000e+00 
    67.5                0.000000e+00 0.000000e+00 0.000000e+00 0.000000e+00 0.000000e+00 0.000000e+00 0.000000e+00 0.000000e+00 0.000000e+00 0.000000e+00 0.000000e+00 0.000000e+00 
    68.5                0.000000e+00 0.000000e+00 0.000000e+00 0.000000e+00 0.000000e+00 0.000000e+00 0.000000e+00 0.000000e+00 0.000000e+00 0.000000e+00 0.000000e+00 0.000000e+00 
    69.5                0.000000e+00 0.000000e+00 0.000000e+00 0.000000e+00 0.000000e+00 0.000000e+00 0.000000e+00 0.000000e+00 0.000000e+00 0.000000e+00 0.000000e+00 0.000000e+00 
    70.5                0.000000e+00 0.000000e+00 0.000000e+00 0.000000e+00 0.000000e+00 0.000000e+00 0.000000e+00 0.000000e+00 0.000000e+00 0.000000e+00 0.000000e+00 0.000000e+00 
    71.5                0.000000e+00 0.000000e+00 0.000000e+00 0.000000e+00 0.000000e+00 0.000000e+00 0.000000e+00 0.000000e+00 0.000000e+00 0.000000e+00 0.000000e+00 0.000000e+00 
    72.5                0.000000e+00 0.000000e+00 0.000000e+00 0.000000e+00 0.000000e+00 0.000000e+00 0.000000e+00 0.000000e+00 0.000000e+00 0.000000e+00 0.000000e+00 0.000000e+00 
    73.5                0.000000e+00 0.000000e+00 0.000000e+00 0.000000e+00 0.000000e+00 0.000000e+00 0.000000e+00 0.000000e+00 0.000000e+00 0.000000e+00 0.000000e+00 0.000000e+00 
    74.5                0.000000e+00 0.000000e+00 0.000000e+00 0.000000e+00 0.000000e+00 0.000000e+00 0.000000e+00 0.000000e+00 0.000000e+00 0.000000e+00 0.000000e+00 0.000000e+00 
    75.5                0.000000e+00 0.000000e+00 0.000000e+00 0.000000e+00 0.000000e+00 0.000000e+00 0.000000e+00 0.000000e+00 0.000000e+00 0.000000e+00 0.000000e+00 0.000000e+00 
    76.5                0.000000e+00 0.000000e+00 0.000000e+00 0.000000e+00 0.000000e+00 0.000000e+00 0.000000e+00 0.000000e+00 0.000000e+00 0.000000e+00 0.000000e+00 0.000000e+00 
    77.5                0.000000e+00 0.000000e+00 0.000000e+00 0.000000e+00 0.000000e+00 0.000000e+00 0.000000e+00 0.000000e+00 0.000000e+00 0.000000e+00 0.000000e+00 0.000000e+00 
    78.5                0.000000e+00 0.000000e+00 0.000000e+00 0.000000e+00 0.000000e+00 0.000000e+00 0.000000e+00 0.000000e+00 0.000000e+00 0.000000e+00 0.000000e+00 0.000000e+00 
    79.5                0.000000e+00 0.000000e+00 0.000000e+00 0.000000e+00 0.000000e+00 0.000000e+00 0.000000e+00 0.000000e+00 0.000000e+00 0.000000e+00 0.000000e+00 0.000000e+00 


