# 80 rows of flux data
# 12 columns of flux data
# 
# total cross-sectional flux  1.056846e+00 /m^2/yr
#
#                             +x ram      -x wake      +y port -y starboard    +z zenith     -z nadir        Earth          Sun     anti-Sun      rot (x)      rot (y)      rot (z) 
# average speed (km/s)         36.76        38.03        34.33        29.01        36.87        30.99        26.76        28.08        27.60        33.57        37.10        33.74 
# total flux (#/m2/yr)  2.620233e-01 2.195814e-01 2.932197e-01 3.493312e-01 4.699866e-01 4.044863e-04 1.666038e-02 1.758555e-01 1.647237e-01 8.741501e-01 7.509531e-01 8.723876e-01 
# velocity (km/s)
     0.5                0.000000e+00 0.000000e+00 0.000000e+00 0.000000e+00 0.000000e+00 0.000000e+00 0.000000e+00 0.000000e+00 0.000000e+00 0.000000e+00 0.000000e+00 0.000000e+00 
     1.5                0.000000e+00 0.000000e+00 0.000000e+00 0.000000e+00 0.000000e+00 0.000000e+00 0.000000e+00 0.000000e+00 0.000000e+00 0.000000e+00 0.000000e+00 0.000000e+00 
     2.5                2.567809e-05 1.197676e-04 7.238043e-05 7.349847e-05 1.560323e-04 6.777864e-08 4.132428e-06 8.216685e-05 7.227925e-05 2.398286e-04 2.392261e-04 2.292567e-04 
     3.5                3.198342e-04 4.731746e-04 3.708096e-04 3.287619e-04 8.111842e-04 3.755521e-07 1.713305e-05 4.324628e-04 3.896659e-04 1.189676e-03 1.266987e-03 1.170561e-03 
     4.5                9.233441e-04 8.487044e-04 8.594758e-04 7.629193e-04 1.744338e-03 9.327125e-07 3.727204e-05 9.675037e-04 9.153245e-04 2.645509e-03 2.774784e-03 2.659380e-03 
     5.5                1.604852e-03 1.271584e-03 1.456040e-03 1.350539e-03 2.770616e-03 1.693100e-06 6.530189e-05 1.617083e-03 1.550777e-03 4.381746e-03 4.454803e-03 4.438803e-03 
     6.5                2.305415e-03 1.655831e-03 2.108845e-03 2.167251e-03 3.818655e-03 2.610898e-06 1.046190e-04 2.270563e-03 2.211947e-03 6.368461e-03 6.137311e-03 6.439436e-03 
     7.5                2.903303e-03 2.036737e-03 2.777441e-03 3.084836e-03 4.775049e-03 3.678412e-06 1.548720e-04 2.882969e-03 2.814931e-03 8.386401e-03 7.666722e-03 8.458230e-03 
     8.5                3.445943e-03 2.382186e-03 3.364797e-03 4.017901e-03 5.641961e-03 4.711743e-06 2.022012e-04 3.430317e-03 3.381886e-03 1.028046e-02 9.050949e-03 1.035096e-02 
     9.5                3.879024e-03 2.652102e-03 3.924606e-03 4.936306e-03 6.386549e-03 5.723502e-06 2.535205e-04 3.927922e-03 3.861040e-03 1.205781e-02 1.019456e-02 1.208455e-02 
    10.5                4.230615e-03 2.962637e-03 4.432368e-03 5.869436e-03 7.044814e-03 6.719094e-06 3.045140e-04 4.406218e-03 4.302310e-03 1.373301e-02 1.123761e-02 1.375496e-02 
    11.5                4.616389e-03 3.201353e-03 4.962966e-03 7.050343e-03 7.744664e-03 7.904302e-06 3.721745e-04 4.895601e-03 4.755463e-03 1.567515e-02 1.228231e-02 1.563350e-02 
    12.5                4.896899e-03 3.383704e-03 5.416945e-03 7.857975e-03 8.232769e-03 8.658563e-06 4.116470e-04 5.241638e-03 5.069730e-03 1.706957e-02 1.303627e-02 1.700460e-02 
    13.5                5.073432e-03 3.418737e-03 5.616430e-03 8.771210e-03 8.497490e-03 9.344887e-06 4.640913e-04 5.388111e-03 5.206703e-03 1.820416e-02 1.341314e-02 1.811431e-02 
    14.5                4.967591e-03 3.550408e-03 5.734318e-03 9.301933e-03 8.599211e-03 1.003105e-05 5.037955e-04 5.453290e-03 5.257577e-03 1.883500e-02 1.351357e-02 1.870072e-02 
    15.5                5.138146e-03 3.615648e-03 6.051138e-03 1.019063e-02 8.901654e-03 1.091820e-05 5.589369e-04 5.586536e-03 5.370211e-03 2.006787e-02 1.394020e-02 1.988738e-02 
    16.5                5.091653e-03 3.666737e-03 6.081160e-03 1.045949e-02 8.917350e-03 1.117828e-05 5.767415e-04 5.601715e-03 5.382916e-03 2.033051e-02 1.395534e-02 2.013521e-02 
    17.5                5.105881e-03 3.680531e-03 6.170779e-03 1.080424e-02 8.995599e-03 1.123471e-05 5.922344e-04 5.572585e-03 5.339386e-03 2.073744e-02 1.403963e-02 2.051502e-02 
    18.5                5.074241e-03 3.747747e-03 6.306994e-03 1.118040e-02 9.055620e-03 1.168265e-05 6.178044e-04 5.543599e-03 5.297767e-03 2.120811e-02 1.411587e-02 2.096593e-02 
    19.5                5.032639e-03 3.732056e-03 6.410083e-03 1.120390e-02 9.033526e-03 1.186052e-05 6.189787e-04 5.434450e-03 5.175738e-03 2.128755e-02 1.405276e-02 2.099213e-02 
    20.5                4.958326e-03 3.678466e-03 6.362242e-03 1.104543e-02 8.812199e-03 1.183630e-05 6.090836e-04 5.245896e-03 4.988640e-03 2.094114e-02 1.377750e-02 2.069662e-02 
    21.5                4.803392e-03 3.728590e-03 6.345168e-03 1.117189e-02 8.776826e-03 1.181883e-05 6.172230e-04 5.101426e-03 4.841680e-03 2.099486e-02 1.366695e-02 2.069896e-02 
    22.5                4.872035e-03 3.653918e-03 6.480169e-03 1.130346e-02 8.807618e-03 1.194279e-05 6.199733e-04 4.982477e-03 4.710579e-03 2.122483e-02 1.368963e-02 2.090025e-02 
    23.5                4.649147e-03 3.506907e-03 6.177398e-03 1.068109e-02 8.310311e-03 1.159045e-05 5.905528e-04 4.665042e-03 4.413479e-03 2.008945e-02 1.300243e-02 1.982268e-02 
    24.5                4.379115e-03 3.424458e-03 6.006826e-03 1.013345e-02 7.968747e-03 1.095617e-05 5.533664e-04 4.389616e-03 4.142687e-03 1.922184e-02 1.245257e-02 1.893885e-02 
    25.5                4.285750e-03 3.335231e-03 5.912527e-03 9.841310e-03 7.739636e-03 1.061515e-05 5.320820e-04 4.155549e-03 3.912108e-03 1.872459e-02 1.212749e-02 1.845356e-02 
    26.5                4.100786e-03 3.309406e-03 5.811664e-03 9.354329e-03 7.522316e-03 1.016574e-05 5.004737e-04 3.939333e-03 3.698067e-03 1.805532e-02 1.178988e-02 1.777405e-02 
    27.5                4.036069e-03 3.177599e-03 5.705412e-03 8.836259e-03 7.273964e-03 9.584495e-06 4.624295e-04 3.724787e-03 3.488993e-03 1.732551e-02 1.143922e-02 1.705938e-02 
    28.5                3.851224e-03 3.106968e-03 5.519344e-03 8.369788e-03 6.974613e-03 9.047654e-06 4.313833e-04 3.453031e-03 3.226067e-03 1.654123e-02 1.100158e-02 1.629874e-02 
    29.5                3.706714e-03 2.883868e-03 5.269541e-03 7.881439e-03 6.604436e-03 8.584850e-06 4.047748e-04 3.135349e-03 2.919648e-03 1.564824e-02 1.041718e-02 1.540721e-02 
    30.5                3.435362e-03 2.812635e-03 5.013730e-03 7.534693e-03 6.233039e-03 8.347598e-06 3.903878e-04 2.906309e-03 2.704610e-03 1.488048e-02 9.854059e-03 1.465665e-02 
    31.5                3.319833e-03 2.801052e-03 4.978186e-03 7.144038e-03 6.111408e-03 7.679831e-06 3.539994e-04 2.735528e-03 2.535166e-03 1.439909e-02 9.658430e-03 1.417071e-02 
    32.5                3.229880e-03 2.687802e-03 4.753577e-03 6.614073e-03 5.852609e-03 7.067519e-06 3.206060e-04 2.513093e-03 2.323507e-03 1.356288e-02 9.293217e-03 1.335747e-02 
    33.5                3.130070e-03 2.749581e-03 4.707714e-03 6.245615e-03 5.790499e-03 6.520295e-06 2.892903e-04 2.328101e-03 2.138638e-03 1.314158e-02 9.212892e-03 1.294567e-02 
    34.5                3.188883e-03 2.750476e-03 4.793412e-03 6.217839e-03 5.861252e-03 6.409613e-06 2.814549e-04 2.240331e-03 2.049087e-03 1.321627e-02 9.316386e-03 1.301195e-02 
    35.5                3.066728e-03 2.649013e-03 4.501112e-03 5.614628e-03 5.589685e-03 5.759767e-06 2.456348e-04 2.090793e-03 1.913892e-03 1.225489e-02 8.925081e-03 1.207987e-02 
    36.5                2.964929e-03 2.706619e-03 4.453067e-03 5.402445e-03 5.567266e-03 5.495520e-06 2.307918e-04 1.957164e-03 1.782532e-03 1.200538e-02 8.874827e-03 1.181777e-02 
    37.5                3.093685e-03 2.785385e-03 4.537008e-03 5.415480e-03 5.695495e-03 5.546661e-06 2.278748e-04 1.899060e-03 1.723636e-03 1.216340e-02 9.142022e-03 1.202350e-02 
    38.5                3.000179e-03 2.984730e-03 4.517897e-03 5.186504e-03 5.812021e-03 5.281013e-06 2.115383e-04 1.825219e-03 1.650171e-03 1.202206e-02 9.310202e-03 1.186195e-02 
    39.5                3.230179e-03 2.871609e-03 4.557058e-03 5.048737e-03 5.966592e-03 5.060733e-06 1.993385e-04 1.771979e-03 1.595877e-03 1.202937e-02 9.523463e-03 1.184867e-02 
    40.5                3.177688e-03 2.960432e-03 4.501447e-03 4.913439e-03 5.909895e-03 4.941883e-06 1.899529e-04 1.699596e-03 1.529559e-03 1.181920e-02 9.514824e-03 1.171008e-02 
    41.5                3.208751e-03 3.263900e-03 4.607609e-03 4.826873e-03 6.245104e-03 4.874705e-06 1.808886e-04 1.681659e-03 1.506622e-03 1.206155e-02 1.003644e-02 1.193642e-02 
    42.5                3.487752e-03 3.163456e-03 4.590479e-03 4.583816e-03 6.455138e-03 4.659072e-06 1.661181e-04 1.671977e-03 1.497291e-03 1.199182e-02 1.034550e-02 1.185190e-02 
    43.5                3.390798e-03 3.345921e-03 4.425971e-03 4.313793e-03 6.372174e-03 4.578791e-06 1.549222e-04 1.619795e-03 1.452855e-03 1.158302e-02 1.034546e-02 1.156413e-02 
    44.5                3.543245e-03 3.677985e-03 4.697310e-03 4.392266e-03 6.957568e-03 4.625703e-06 1.525623e-04 1.671797e-03 1.493649e-03 1.227366e-02 1.119090e-02 1.217127e-02 
    45.5                3.906630e-03 3.651753e-03 4.764136e-03 4.350408e-03 7.184940e-03 4.695453e-06 1.490580e-04 1.673611e-03 1.495890e-03 1.244661e-02 1.163270e-02 1.242656e-02 
    46.5                3.824554e-03 3.746583e-03 4.701605e-03 4.167190e-03 7.242806e-03 4.531019e-06 1.396944e-04 1.636591e-03 1.461944e-03 1.229807e-02 1.168935e-02 1.225894e-02 
    47.5                3.964702e-03 3.993915e-03 4.734841e-03 4.059203e-03 7.537987e-03 4.576641e-06 1.347291e-04 1.657522e-03 1.480852e-03 1.248112e-02 1.222803e-02 1.251281e-02 
    48.5                4.057981e-03 4.376600e-03 4.820202e-03 3.938028e-03 8.063024e-03 4.656123e-06 1.297445e-04 1.708071e-03 1.525804e-03 1.286890e-02 1.301625e-02 1.285358e-02 
    49.5                4.490560e-03 4.806678e-03 5.066486e-03 3.969209e-03 8.737342e-03 4.927949e-06 1.289932e-04 1.773167e-03 1.581235e-03 1.359954e-02 1.422336e-02 1.373253e-02 
    50.5                4.778971e-03 5.500238e-03 5.381006e-03 3.970811e-03 9.717377e-03 5.210061e-06 1.261780e-04 1.865168e-03 1.657371e-03 1.461038e-02 1.577395e-02 1.475255e-02 
    51.5                5.455877e-03 6.052347e-03 5.733017e-03 3.918866e-03 1.102923e-02 5.493010e-06 1.236971e-04 1.960145e-03 1.732810e-03 1.591408e-02 1.777891e-02 1.598591e-02 
    52.5                6.148627e-03 6.052842e-03 5.767179e-03 3.700510e-03 1.163136e-02 5.607100e-06 1.168447e-04 2.009438e-03 1.777335e-03 1.629825e-02 1.879494e-02 1.646352e-02 
    53.5                6.258887e-03 6.133749e-03 5.628776e-03 3.421899e-03 1.176846e-02 5.535643e-06 1.084963e-04 2.023497e-03 1.795811e-03 1.613089e-02 1.905460e-02 1.637149e-02 
    54.5                6.373489e-03 5.782155e-03 5.409126e-03 3.151626e-03 1.161557e-02 5.355717e-06 9.969775e-05 1.999627e-03 1.780886e-03 1.566675e-02 1.875369e-02 1.586159e-02 
    55.5                6.303620e-03 5.825255e-03 5.206557e-03 2.960469e-03 1.135112e-02 5.283878e-06 9.445254e-05 1.966657e-03 1.757990e-03 1.517655e-02 1.851299e-02 1.557928e-02 
    56.5                6.163275e-03 5.552223e-03 5.018960e-03 2.746855e-03 1.113614e-02 4.977097e-06 8.595935e-05 1.918130e-03 1.718169e-03 1.470732e-02 1.801763e-02 1.498169e-02 
    57.5                5.937170e-03 5.069107e-03 4.601874e-03 2.455522e-03 1.037568e-02 4.697812e-06 7.806110e-05 1.817220e-03 1.635761e-03 1.358268e-02 1.687039e-02 1.392040e-02 
    58.5                5.461695e-03 4.860707e-03 4.217954e-03 2.160819e-03 9.725419e-03 4.322769e-06 6.919730e-05 1.680194e-03 1.514438e-03 1.257515e-02 1.580871e-02 1.290190e-02 
    59.5                5.159969e-03 4.633535e-03 3.940214e-03 1.929595e-03 9.270737e-03 4.015411e-06 6.117260e-05 1.544003e-03 1.389352e-03 1.184202e-02 1.502876e-02 1.213812e-02 
    60.5                4.980341e-03 4.210865e-03 3.605231e-03 1.701436e-03 8.660745e-03 3.743022e-06 5.516438e-05 1.380576e-03 1.239415e-03 1.095718e-02 1.407718e-02 1.127076e-02 
    61.5                4.513504e-03 3.668205e-03 3.157246e-03 1.390574e-03 7.833455e-03 3.260174e-06 4.532610e-05 1.209451e-03 1.085130e-03 9.750337e-03 1.263414e-02 9.947195e-03 
    62.5                4.165318e-03 3.005611e-03 2.651220e-03 1.126887e-03 6.700099e-03 2.862445e-06 3.824242e-05 1.030814e-03 9.271098e-04 8.275393e-03 1.093578e-02 8.587395e-03 
    63.5                3.402651e-03 2.448109e-03 2.123570e-03 8.568220e-04 5.476258e-03 2.306163e-06 2.928936e-05 8.463423e-04 7.635446e-04 6.692641e-03 8.930979e-03 6.958674e-03 
    64.5                2.803116e-03 1.959314e-03 1.699135e-03 6.625657e-04 4.443004e-03 1.874704e-06 2.312944e-05 6.707604e-04 6.050798e-04 5.396369e-03 7.260526e-03 5.625830e-03 
    65.5                2.225861e-03 1.495631e-03 1.306985e-03 4.772864e-04 3.506035e-03 1.435325e-06 1.704859e-05 5.067542e-04 4.560565e-04 4.210265e-03 5.700038e-03 4.366928e-03 
    66.5                1.783971e-03 1.062709e-03 9.695978e-04 3.331008e-04 2.659707e-03 1.097993e-06 1.236301e-05 3.638891e-04 3.263358e-04 3.163689e-03 4.341686e-03 3.307522e-03 
    67.5                1.309985e-03 6.799018e-04 6.520273e-04 2.074255e-04 1.838385e-03 7.648595e-07 8.208322e-06 2.371470e-04 2.118846e-04 2.164084e-03 3.019661e-03 2.287079e-03 
    68.5                8.810971e-04 3.808702e-04 3.970977e-04 1.125713e-04 1.160251e-03 4.871386e-07 4.881028e-06 1.370016e-04 1.214124e-04 1.347890e-03 1.910931e-03 1.434166e-03 
    69.5                5.393619e-04 1.682397e-04 2.099631e-04 5.263906e-05 6.343226e-04 2.715384e-07 2.566779e-06 6.707134e-05 5.879012e-05 7.278649e-04 1.057797e-03 7.926340e-04 
    70.5                2.701798e-04 4.287623e-05 8.587495e-05 1.898223e-05 2.671759e-04 1.232645e-07 1.079336e-06 2.556316e-05 2.217657e-05 3.030042e-04 4.579386e-04 3.451067e-04 
    71.5                9.802854e-05 5.625320e-06 2.309934e-05 5.066118e-06 7.213070e-05 4.717358e-08 3.678869e-07 6.486525e-06 5.607638e-06 8.159802e-05 1.389422e-04 1.107668e-04 
    72.5                1.714588e-05 1.184690e-07 3.094006e-06 5.962890e-07 9.891640e-06 8.874782e-09 6.336684e-08 9.104399e-07 7.964653e-07 1.104910e-05 2.163367e-05 1.802109e-05 
    73.5                1.322396e-06 0.000000e+00 1.458895e-07 1.654918e-08 4.959499e-07 8.323717e-10 4.799892e-09 3.888344e-08 3.338703e-08 5.378127e-07 1.466277e-06 1.338727e-06 
    74.5                0.000000e+00 0.000000e+00 0.000000e+00 0.000000e+00 0.000000e+00 0.000000e+00 0.000000e+00 0.000000e+00 0.000000e+00 0.000000e+00 0.000000e+00 0.000000e+00 
    75.5                0.000000e+00 0.000000e+00 0.000000e+00 0.000000e+00 0.000000e+00 0.000000e+00 0.000000e+00 0.000000e+00 0.000000e+00 0.000000e+00 0.000000e+00 0.000000e+00 
    76.5                0.000000e+00 0.000000e+00 0.000000e+00 0.000000e+00 0.000000e+00 0.000000e+00 0.000000e+00 0.000000e+00 0.000000e+00 0.000000e+00 0.000000e+00 0.000000e+00 
    77.5                0.000000e+00 0.000000e+00 0.000000e+00 0.000000e+00 0.000000e+00 0.000000e+00 0.000000e+00 0.000000e+00 0.000000e+00 0.000000e+00 0.000000e+00 0.000000e+00 
    78.5                0.000000e+00 0.000000e+00 0.000000e+00 0.000000e+00 0.000000e+00 0.000000e+00 0.000000e+00 0.000000e+00 0.000000e+00 0.000000e+00 0.000000e+00 0.000000e+00 
    79.5                0.000000e+00 0.000000e+00 0.000000e+00 0.000000e+00 0.000000e+00 0.000000e+00 0.000000e+00 0.000000e+00 0.000000e+00 0.000000e+00 0.000000e+00 0.000000e+00 


