# 80 rows of flux data
# 12 columns of flux data
# 
# total cross-sectional flux  2.301986e+00 /m^2/yr
#
#                             +x ram      -x wake      +y port -y starboard    +z zenith     -z nadir        Earth          Sun     anti-Sun      rot (x)      rot (y)      rot (z) 
# average speed (km/s)         24.48        24.47        24.89        17.11        24.39        23.41        24.47        24.99        24.99        23.98        24.44        24.33 
# total flux (#/m2/yr)  7.007345e-01 7.002005e-01 8.694538e-01 1.056991e-01 1.108631e+00 6.572035e-04 6.940661e-01 1.003398e+00 1.003638e+00 1.562060e+00 1.983842e+00 1.881798e+00 
# velocity (km/s)
     0.5                0.000000e+00 0.000000e+00 0.000000e+00 0.000000e+00 0.000000e+00 0.000000e+00 0.000000e+00 0.000000e+00 0.000000e+00 0.000000e+00 0.000000e+00 0.000000e+00 
     1.5                0.000000e+00 0.000000e+00 0.000000e+00 0.000000e+00 0.000000e+00 0.000000e+00 0.000000e+00 0.000000e+00 0.000000e+00 0.000000e+00 0.000000e+00 0.000000e+00 
     2.5                3.585477e-07 3.549498e-07 0.000000e+00 7.308889e-07 4.682184e-08 2.859195e-09 3.550660e-07 2.555584e-07 2.596047e-07 7.341305e-07 7.229348e-07 1.116708e-06 
     3.5                3.956747e-05 3.973177e-05 5.426919e-06 3.073362e-05 1.886935e-05 8.642518e-08 3.941943e-05 2.158236e-05 2.154667e-05 4.571090e-05 8.327283e-05 9.445598e-05 
     4.5                2.526409e-04 2.536658e-04 1.419608e-04 1.527015e-04 2.509544e-04 4.157593e-07 2.517964e-04 1.465943e-04 1.464099e-04 4.272736e-04 6.099721e-04 6.360370e-04 
     5.5                9.281710e-04 9.325842e-04 6.614324e-04 5.481289e-04 1.080612e-03 1.323276e-06 9.250282e-04 6.146961e-04 6.137871e-04 1.797617e-03 2.345691e-03 2.422688e-03 
     6.5                2.305298e-03 2.310248e-03 2.193032e-03 1.128261e-03 3.282479e-03 2.828985e-06 2.296770e-03 1.789845e-03 1.789567e-03 5.180678e-03 6.243212e-03 6.236378e-03 
     7.5                4.048359e-03 4.053862e-03 4.082182e-03 2.031302e-03 6.064466e-03 5.011631e-06 4.031841e-03 3.462011e-03 3.461559e-03 9.572301e-03 1.119501e-02 1.117281e-02 
     8.5                6.656715e-03 6.660509e-03 6.914600e-03 2.923964e-03 1.008298e-02 8.231054e-06 6.627276e-03 5.902606e-03 5.903647e-03 1.566395e-02 1.850678e-02 1.821094e-02 
     9.5                9.811979e-03 9.814312e-03 1.061731e-02 4.237621e-03 1.526471e-02 1.144449e-05 9.766044e-03 9.124311e-03 9.126002e-03 2.363385e-02 2.753479e-02 2.709156e-02 
    10.5                1.242492e-02 1.241837e-02 1.431476e-02 5.544849e-03 2.052299e-02 1.426044e-05 1.236069e-02 1.279891e-02 1.280102e-02 3.173965e-02 3.573356e-02 3.510061e-02 
    11.5                1.461375e-02 1.460911e-02 1.676816e-02 6.634066e-03 2.434567e-02 1.686048e-05 1.452374e-02 1.657488e-02 1.657714e-02 3.757223e-02 4.220558e-02 4.134691e-02 
    12.5                1.635862e-02 1.635142e-02 1.929133e-02 7.125636e-03 2.779844e-02 1.859842e-05 1.624502e-02 2.003529e-02 2.003975e-02 4.257306e-02 4.768583e-02 4.651126e-02 
    13.5                1.760590e-02 1.759548e-02 2.063472e-02 7.454129e-03 2.988883e-02 1.995197e-05 1.746876e-02 2.276621e-02 2.277056e-02 4.533323e-02 5.133021e-02 4.978939e-02 
    14.5                1.945309e-02 1.944089e-02 2.265693e-02 7.321118e-03 3.239733e-02 2.158174e-05 1.928913e-02 2.597844e-02 2.598361e-02 4.857594e-02 5.628341e-02 5.425524e-02 
    15.5                2.115339e-02 2.114549e-02 2.496169e-02 6.987103e-03 3.478393e-02 2.297912e-05 2.096622e-02 2.905305e-02 2.905972e-02 5.174285e-02 6.091550e-02 5.858833e-02 
    16.5                2.286959e-02 2.285358e-02 2.733450e-02 6.669786e-03 3.740969e-02 2.397408e-05 2.265770e-02 3.215999e-02 3.216696e-02 5.507649e-02 6.568184e-02 6.292464e-02 
    17.5                2.417592e-02 2.416405e-02 2.914672e-02 6.065911e-03 3.913423e-02 2.484541e-05 2.394441e-02 3.461538e-02 3.462276e-02 5.711387e-02 6.914926e-02 6.601808e-02 
    18.5                2.544978e-02 2.543651e-02 3.085022e-02 5.456824e-03 4.067714e-02 2.560609e-05 2.519842e-02 3.707576e-02 3.708363e-02 5.885577e-02 7.241477e-02 6.895765e-02 
    19.5                2.651286e-02 2.649492e-02 3.245953e-02 5.012340e-03 4.223449e-02 2.602172e-05 2.624399e-02 3.920736e-02 3.921684e-02 6.068422e-02 7.530993e-02 7.157928e-02 
    20.5                2.705201e-02 2.703557e-02 3.335489e-02 4.450328e-03 4.290941e-02 2.617753e-05 2.677311e-02 4.046149e-02 4.047090e-02 6.123018e-02 7.672588e-02 7.276191e-02 
    21.5                2.766419e-02 2.764981e-02 3.409389e-02 3.914490e-03 4.333705e-02 2.650850e-05 2.737649e-02 4.152500e-02 4.153631e-02 6.145034e-02 7.805923e-02 7.394082e-02 
    22.5                2.861771e-02 2.860082e-02 3.530124e-02 3.587705e-03 4.457011e-02 2.701528e-05 2.831745e-02 4.310500e-02 4.311449e-02 6.280057e-02 8.055570e-02 7.619099e-02 
    23.5                2.922355e-02 2.920556e-02 3.638939e-02 3.096260e-03 4.548617e-02 2.699683e-05 2.891483e-02 4.426914e-02 4.428080e-02 6.370782e-02 8.222492e-02 7.764677e-02 
    24.5                2.936160e-02 2.934230e-02 3.670154e-02 2.696415e-03 4.555920e-02 2.679445e-05 2.905012e-02 4.455647e-02 4.456619e-02 6.346315e-02 8.250865e-02 7.783605e-02 
    25.5                2.939440e-02 2.937472e-02 3.685869e-02 2.293881e-03 4.547749e-02 2.646765e-05 2.908334e-02 4.457621e-02 4.458701e-02 6.296573e-02 8.249728e-02 7.772515e-02 
    26.5                2.920789e-02 2.918606e-02 3.679190e-02 1.954664e-03 4.514524e-02 2.588363e-05 2.889943e-02 4.430249e-02 4.431239e-02 6.216088e-02 8.193229e-02 7.712909e-02 
    27.5                2.844917e-02 2.842707e-02 3.608069e-02 1.658071e-03 4.410680e-02 2.485762e-05 2.814953e-02 4.318627e-02 4.319879e-02 6.042022e-02 7.989820e-02 7.513050e-02 
    28.5                2.761326e-02 2.759102e-02 3.497963e-02 1.405558e-03 4.261557e-02 2.400360e-05 2.732420e-02 4.175985e-02 4.176907e-02 5.812643e-02 7.740748e-02 7.276251e-02 
    29.5                2.666986e-02 2.664683e-02 3.393388e-02 1.183314e-03 4.121680e-02 2.285538e-05 2.639253e-02 4.025484e-02 4.026606e-02 5.598450e-02 7.478839e-02 7.025523e-02 
    30.5                2.538648e-02 2.536433e-02 3.241490e-02 9.634569e-04 3.926263e-02 2.159340e-05 2.512493e-02 3.821749e-02 3.822640e-02 5.311618e-02 7.121353e-02 6.685274e-02 
    31.5                2.398178e-02 2.395842e-02 3.071926e-02 7.740341e-04 3.711559e-02 2.018589e-05 2.373654e-02 3.596762e-02 3.597725e-02 5.000507e-02 6.728469e-02 6.312994e-02 
    32.5                2.236816e-02 2.234594e-02 2.875672e-02 6.130250e-04 3.467029e-02 1.864584e-05 2.214197e-02 3.339946e-02 3.340829e-02 4.652944e-02 6.279088e-02 5.888274e-02 
    33.5                2.054340e-02 2.051883e-02 2.655641e-02 4.886325e-04 3.196524e-02 1.689422e-05 2.033826e-02 3.053065e-02 3.053810e-02 4.275903e-02 5.774600e-02 5.412202e-02 
    34.5                1.847001e-02 1.844878e-02 2.399364e-02 3.838456e-04 2.884310e-02 1.505786e-05 1.828862e-02 2.731086e-02 2.731766e-02 3.848106e-02 5.199055e-02 4.870577e-02 
    35.5                1.639018e-02 1.636870e-02 2.138254e-02 2.882886e-04 2.567285e-02 1.322092e-05 1.623131e-02 2.410403e-02 2.411169e-02 3.415418e-02 4.618515e-02 4.324593e-02 
    36.5                1.430928e-02 1.429027e-02 1.873989e-02 2.089932e-04 2.247093e-02 1.145118e-05 1.417313e-02 2.090500e-02 2.090969e-02 2.981308e-02 4.036115e-02 3.777801e-02 
    37.5                1.231654e-02 1.229853e-02 1.620522e-02 1.497676e-04 1.941255e-02 9.729246e-06 1.220139e-02 1.786461e-02 1.786986e-02 2.569023e-02 3.478422e-02 3.254457e-02 
    38.5                1.036792e-02 1.035103e-02 1.371729e-02 1.029174e-04 1.641867e-02 8.091206e-06 1.027268e-02 1.493846e-02 1.494315e-02 2.167904e-02 2.933323e-02 2.743063e-02 
    39.5                8.480073e-03 8.465233e-03 1.133315e-02 6.720225e-05 1.355426e-02 6.477142e-06 8.403895e-03 1.215290e-02 1.215659e-02 1.785987e-02 2.407527e-02 2.249811e-02 
    40.5                6.639778e-03 6.626044e-03 8.980795e-03 4.200382e-05 1.073439e-02 4.950662e-06 6.581461e-03 9.464804e-03 9.467753e-03 1.411829e-02 1.893346e-02 1.767861e-02 
    41.5                4.951232e-03 4.939839e-03 6.792267e-03 2.471447e-05 8.114602e-03 3.595045e-06 4.908835e-03 7.028434e-03 7.030472e-03 1.065572e-02 1.419417e-02 1.324110e-02 
    42.5                3.516629e-03 3.508340e-03 4.878287e-03 1.378616e-05 5.825871e-03 2.495531e-06 3.487236e-03 4.964314e-03 4.965788e-03 7.639844e-03 1.012540e-02 9.438561e-03 
    43.5                2.377783e-03 2.370821e-03 3.354238e-03 7.284073e-06 4.004612e-03 1.623240e-06 2.358374e-03 3.343425e-03 3.344804e-03 5.245751e-03 6.889636e-03 6.415456e-03 
    44.5                1.459395e-03 1.454654e-03 2.127368e-03 3.357291e-06 2.539082e-03 9.307038e-07 1.447871e-03 2.061822e-03 2.062552e-03 3.322900e-03 4.285070e-03 3.982023e-03 
    45.5                7.831591e-04 7.800998e-04 1.186404e-03 1.345078e-06 1.415676e-03 4.540004e-07 7.772167e-04 1.114909e-03 1.115295e-03 1.851280e-03 2.336176e-03 2.165733e-03 
    46.5                3.434569e-04 3.418255e-04 5.530616e-04 4.344490e-07 6.597506e-04 1.711270e-07 3.409937e-04 4.992819e-04 4.996252e-04 8.623176e-04 1.051626e-03 9.711897e-04 
    47.5                1.082422e-04 1.076603e-04 1.899377e-04 9.624148e-08 2.265170e-04 4.490514e-08 1.075194e-04 1.635519e-04 1.636214e-04 2.959563e-04 3.451349e-04 3.169732e-04 
    48.5                2.359105e-05 2.344877e-05 4.570186e-05 1.321743e-08 5.448849e-05 6.767855e-09 2.344802e-05 3.737462e-05 3.741315e-05 7.117245e-05 7.892868e-05 7.202728e-05 
    49.5                2.781444e-06 2.768465e-06 6.335367e-06 4.406728e-10 7.550836e-06 2.368423e-10 2.767746e-06 4.837211e-06 4.846068e-06 9.860854e-06 1.012324e-05 9.142589e-06 
    50.5                5.340177e-08 5.389341e-08 1.816140e-07 0.000000e+00 2.164098e-07 0.000000e+00 5.336374e-08 1.239161e-07 1.238938e-07 2.825894e-07 2.507233e-07 2.205640e-07 
    51.5                0.000000e+00 0.000000e+00 0.000000e+00 0.000000e+00 0.000000e+00 0.000000e+00 0.000000e+00 0.000000e+00 0.000000e+00 0.000000e+00 0.000000e+00 0.000000e+00 
    52.5                0.000000e+00 0.000000e+00 0.000000e+00 0.000000e+00 0.000000e+00 0.000000e+00 0.000000e+00 0.000000e+00 0.000000e+00 0.000000e+00 0.000000e+00 0.000000e+00 
    53.5                0.000000e+00 0.000000e+00 0.000000e+00 0.000000e+00 0.000000e+00 0.000000e+00 0.000000e+00 0.000000e+00 0.000000e+00 0.000000e+00 0.000000e+00 0.000000e+00 
    54.5                0.000000e+00 0.000000e+00 0.000000e+00 0.000000e+00 0.000000e+00 0.000000e+00 0.000000e+00 0.000000e+00 0.000000e+00 0.000000e+00 0.000000e+00 0.000000e+00 
    55.5                0.000000e+00 0.000000e+00 0.000000e+00 0.000000e+00 0.000000e+00 0.000000e+00 0.000000e+00 0.000000e+00 0.000000e+00 0.000000e+00 0.000000e+00 0.000000e+00 
    56.5                0.000000e+00 0.000000e+00 0.000000e+00 0.000000e+00 0.000000e+00 0.000000e+00 0.000000e+00 0.000000e+00 0.000000e+00 0.000000e+00 0.000000e+00 0.000000e+00 
    57.5                0.000000e+00 0.000000e+00 0.000000e+00 0.000000e+00 0.000000e+00 0.000000e+00 0.000000e+00 0.000000e+00 0.000000e+00 0.000000e+00 0.000000e+00 0.000000e+00 
    58.5                0.000000e+00 0.000000e+00 0.000000e+00 0.000000e+00 0.000000e+00 0.000000e+00 0.000000e+00 0.000000e+00 0.000000e+00 0.000000e+00 0.000000e+00 0.000000e+00 
    59.5                0.000000e+00 0.000000e+00 0.000000e+00 0.000000e+00 0.000000e+00 0.000000e+00 0.000000e+00 0.000000e+00 0.000000e+00 0.000000e+00 0.000000e+00 0.000000e+00 
    60.5                0.000000e+00 0.000000e+00 0.000000e+00 0.000000e+00 0.000000e+00 0.000000e+00 0.000000e+00 0.000000e+00 0.000000e+00 0.000000e+00 0.000000e+00 0.000000e+00 
    61.5                0.000000e+00 0.000000e+00 0.000000e+00 0.000000e+00 0.000000e+00 0.000000e+00 0.000000e+00 0.000000e+00 0.000000e+00 0.000000e+00 0.000000e+00 0.000000e+00 
    62.5                0.000000e+00 0.000000e+00 0.000000e+00 0.000000e+00 0.000000e+00 0.000000e+00 0.000000e+00 0.000000e+00 0.000000e+00 0.000000e+00 0.000000e+00 0.000000e+00 
    63.5                0.000000e+00 0.000000e+00 0.000000e+00 0.000000e+00 0.000000e+00 0.000000e+00 0.000000e+00 0.000000e+00 0.000000e+00 0.000000e+00 0.000000e+00 0.000000e+00 
    64.5                0.000000e+00 0.000000e+00 0.000000e+00 0.000000e+00 0.000000e+00 0.000000e+00 0.000000e+00 0.000000e+00 0.000000e+00 0.000000e+00 0.000000e+00 0.000000e+00 
    65.5                0.000000e+00 0.000000e+00 0.000000e+00 0.000000e+00 0.000000e+00 0.000000e+00 0.000000e+00 0.000000e+00 0.000000e+00 0.000000e+00 0.000000e+00 0.000000e+00 
    66.5                0.000000e+00 0.000000e+00 0.000000e+00 0.000000e+00 0.000000e+00 0.000000e+00 0.000000e+00 0.000000e+00 0.000000e+00 0.000000e+00 0.000000e+00 0.000000e+00 
    67.5                0.000000e+00 0.000000e+00 0.000000e+00 0.000000e+00 0.000000e+00 0.000000e+00 0.000000e+00 0.000000e+00 0.000000e+00 0.000000e+00 0.000000e+00 0.000000e+00 
    68.5                0.000000e+00 0.000000e+00 0.000000e+00 0.000000e+00 0.000000e+00 0.000000e+00 0.000000e+00 0.000000e+00 0.000000e+00 0.000000e+00 0.000000e+00 0.000000e+00 
    69.5                0.000000e+00 0.000000e+00 0.000000e+00 0.000000e+00 0.000000e+00 0.000000e+00 0.000000e+00 0.000000e+00 0.000000e+00 0.000000e+00 0.000000e+00 0.000000e+00 
    70.5                0.000000e+00 0.000000e+00 0.000000e+00 0.000000e+00 0.000000e+00 0.000000e+00 0.000000e+00 0.000000e+00 0.000000e+00 0.000000e+00 0.000000e+00 0.000000e+00 
    71.5                0.000000e+00 0.000000e+00 0.000000e+00 0.000000e+00 0.000000e+00 0.000000e+00 0.000000e+00 0.000000e+00 0.000000e+00 0.000000e+00 0.000000e+00 0.000000e+00 
    72.5                0.000000e+00 0.000000e+00 0.000000e+00 0.000000e+00 0.000000e+00 0.000000e+00 0.000000e+00 0.000000e+00 0.000000e+00 0.000000e+00 0.000000e+00 0.000000e+00 
    73.5                0.000000e+00 0.000000e+00 0.000000e+00 0.000000e+00 0.000000e+00 0.000000e+00 0.000000e+00 0.000000e+00 0.000000e+00 0.000000e+00 0.000000e+00 0.000000e+00 
    74.5                0.000000e+00 0.000000e+00 0.000000e+00 0.000000e+00 0.000000e+00 0.000000e+00 0.000000e+00 0.000000e+00 0.000000e+00 0.000000e+00 0.000000e+00 0.000000e+00 
    75.5                0.000000e+00 0.000000e+00 0.000000e+00 0.000000e+00 0.000000e+00 0.000000e+00 0.000000e+00 0.000000e+00 0.000000e+00 0.000000e+00 0.000000e+00 0.000000e+00 
    76.5                0.000000e+00 0.000000e+00 0.000000e+00 0.000000e+00 0.000000e+00 0.000000e+00 0.000000e+00 0.000000e+00 0.000000e+00 0.000000e+00 0.000000e+00 0.000000e+00 
    77.5                0.000000e+00 0.000000e+00 0.000000e+00 0.000000e+00 0.000000e+00 0.000000e+00 0.000000e+00 0.000000e+00 0.000000e+00 0.000000e+00 0.000000e+00 0.000000e+00 
    78.5                0.000000e+00 0.000000e+00 0.000000e+00 0.000000e+00 0.000000e+00 0.000000e+00 0.000000e+00 0.000000e+00 0.000000e+00 0.000000e+00 0.000000e+00 0.000000e+00 
    79.5                0.000000e+00 0.000000e+00 0.000000e+00 0.000000e+00 0.000000e+00 0.000000e+00 0.000000e+00 0.000000e+00 0.000000e+00 0.000000e+00 0.000000e+00 0.000000e+00 


