# 80 rows of flux data
# 12 columns of flux data
# 
# total cross-sectional flux  1.032485e+00 /m^2/yr
#
#                             +x ram      -x wake      +y port -y starboard    +z zenith     -z nadir        Earth          Sun     anti-Sun      rot (x)      rot (y)      rot (z) 
# average speed (km/s)         37.42        37.42        37.63        37.04        31.61        35.89        37.48        27.81        27.81        33.78        33.78        37.36 
# total flux (#/m2/yr)  2.330361e-01 2.329110e-01 2.091683e-01 2.588667e-01 6.328494e-01 1.043999e-04 2.320989e-01 1.683027e-01 1.683225e-01 8.573324e-01 8.527694e-01 7.336015e-01 
# velocity (km/s)
     0.5                0.000000e+00 0.000000e+00 0.000000e+00 0.000000e+00 0.000000e+00 0.000000e+00 0.000000e+00 0.000000e+00 0.000000e+00 0.000000e+00 0.000000e+00 0.000000e+00 
     1.5                0.000000e+00 0.000000e+00 0.000000e+00 0.000000e+00 0.000000e+00 0.000000e+00 0.000000e+00 0.000000e+00 0.000000e+00 0.000000e+00 0.000000e+00 0.000000e+00 
     2.5                9.012921e-05 9.023524e-05 3.254754e-05 1.199777e-04 1.467964e-04 6.277437e-08 8.965057e-05 8.271521e-05 8.274967e-05 2.350572e-04 2.559558e-04 2.618777e-04 
     3.5                4.467116e-04 4.468590e-04 3.742092e-04 4.700800e-04 7.357567e-04 4.690406e-07 4.444463e-04 4.337856e-04 4.337277e-04 1.235866e-03 1.272008e-03 1.364346e-03 
     4.5                9.329781e-04 9.326296e-04 9.924369e-04 8.514841e-04 1.653591e-03 1.107028e-06 9.277969e-04 9.819442e-04 9.819043e-04 2.738400e-03 2.753416e-03 2.913421e-03 
     5.5                1.455810e-03 1.454916e-03 1.644496e-03 1.290420e-03 2.802733e-03 1.662168e-06 1.446839e-03 1.632564e-03 1.632711e-03 4.489605e-03 4.471085e-03 4.590389e-03 
     6.5                1.964142e-03 1.962878e-03 2.244447e-03 1.727466e-03 4.220056e-03 2.114028e-06 1.951326e-03 2.282788e-03 2.283103e-03 6.422460e-03 6.387657e-03 6.203807e-03 
     7.5                2.416634e-03 2.415903e-03 2.714872e-03 2.186065e-03 5.725548e-03 2.486218e-06 2.399997e-03 2.873097e-03 2.873201e-03 8.340924e-03 8.284633e-03 7.645021e-03 
     8.5                2.820995e-03 2.819868e-03 3.113627e-03 2.603895e-03 7.205995e-03 2.697948e-06 2.800959e-03 3.407509e-03 3.408072e-03 1.016655e-02 1.010504e-02 8.921525e-03 
     9.5                3.181812e-03 3.180441e-03 3.443124e-03 2.988777e-03 8.637273e-03 2.805327e-06 3.158280e-03 3.900682e-03 3.901005e-03 1.187665e-02 1.181570e-02 1.004888e-02 
    10.5                3.464810e-03 3.462927e-03 3.645518e-03 3.389976e-03 1.003279e-02 2.924534e-06 3.438123e-03 4.334237e-03 4.334902e-03 1.346691e-02 1.337548e-02 1.096582e-02 
    11.5                3.771588e-03 3.770243e-03 3.865601e-03 3.753774e-03 1.168928e-02 3.006170e-06 3.741743e-03 4.799063e-03 4.799387e-03 1.527848e-02 1.521800e-02 1.190855e-02 
    12.5                3.988815e-03 3.986734e-03 4.012016e-03 4.038937e-03 1.295095e-02 2.936579e-06 3.956156e-03 5.123348e-03 5.123931e-03 1.663254e-02 1.656566e-02 1.258837e-02 
    13.5                4.072626e-03 4.071147e-03 4.059751e-03 4.171009e-03 1.405915e-02 2.931332e-06 4.039963e-03 5.261695e-03 5.262383e-03 1.773849e-02 1.766743e-02 1.285991e-02 
    14.5                4.096242e-03 4.095009e-03 3.947825e-03 4.397458e-03 1.463161e-02 2.820810e-06 4.063252e-03 5.311189e-03 5.311648e-03 1.829323e-02 1.819143e-02 1.298652e-02 
    15.5                4.209554e-03 4.207358e-03 3.959146e-03 4.567948e-03 1.580948e-02 2.657735e-06 4.175330e-03 5.418118e-03 5.418871e-03 1.943947e-02 1.934973e-02 1.330663e-02 
    16.5                4.197880e-03 4.195834e-03 3.877066e-03 4.665103e-03 1.610118e-02 2.516558e-06 4.163761e-03 5.429636e-03 5.430366e-03 1.968668e-02 1.957835e-02 1.330213e-02 
    17.5                4.211862e-03 4.209577e-03 3.817847e-03 4.726885e-03 1.656492e-02 2.400499e-06 4.177564e-03 5.379281e-03 5.379982e-03 2.006619e-02 1.997669e-02 1.332518e-02 
    18.5                4.231318e-03 4.229807e-03 3.753504e-03 4.864294e-03 1.704346e-02 2.315977e-06 4.197216e-03 5.341731e-03 5.342073e-03 2.051038e-02 2.039720e-02 1.341417e-02 
    19.5                4.229997e-03 4.227433e-03 3.671768e-03 4.876008e-03 1.716352e-02 2.136883e-06 4.195512e-03 5.227621e-03 5.228597e-03 2.053209e-02 2.045570e-02 1.335550e-02 
    20.5                4.131302e-03 4.128636e-03 3.598699e-03 4.835042e-03 1.697225e-02 1.948914e-06 4.097456e-03 5.045269e-03 5.045755e-03 2.025938e-02 2.012196e-02 1.310887e-02 
    21.5                4.094249e-03 4.092923e-03 3.419417e-03 4.925582e-03 1.706293e-02 1.722645e-06 4.061968e-03 4.890469e-03 4.890956e-03 2.025367e-02 2.013011e-02 1.298450e-02 
    22.5                4.106486e-03 4.103776e-03 3.421626e-03 4.881641e-03 1.736293e-02 1.633217e-06 4.074467e-03 4.760533e-03 4.761192e-03 2.045393e-02 2.036158e-02 1.297041e-02 
    23.5                3.882139e-03 3.879699e-03 3.245984e-03 4.660747e-03 1.644117e-02 1.512262e-06 3.851907e-03 4.455238e-03 4.455940e-03 1.937213e-02 1.925161e-02 1.230626e-02 
    24.5                3.738149e-03 3.736567e-03 3.051011e-03 4.550346e-03 1.574105e-02 1.363611e-06 3.709386e-03 4.190260e-03 4.190607e-03 1.853113e-02 1.841765e-02 1.183887e-02 
    25.5                3.635448e-03 3.632908e-03 2.956546e-03 4.426823e-03 1.538933e-02 1.227505e-06 3.606959e-03 3.957308e-03 3.957793e-03 1.806705e-02 1.795530e-02 1.150661e-02 
    26.5                3.556816e-03 3.554918e-03 2.828176e-03 4.385270e-03 1.480271e-02 1.095457e-06 3.529570e-03 3.752109e-03 3.752744e-03 1.741327e-02 1.730269e-02 1.125113e-02 
    27.5                3.459197e-03 3.457740e-03 2.770203e-03 4.207658e-03 1.423852e-02 9.118031e-07 3.432740e-03 3.544941e-03 3.545153e-03 1.673566e-02 1.663738e-02 1.091178e-02 
    28.5                3.319601e-03 3.316904e-03 2.623058e-03 4.102362e-03 1.360919e-02 8.026207e-07 3.295040e-03 3.269527e-03 3.270004e-03 1.598701e-02 1.587389e-02 1.049374e-02 
    29.5                3.150129e-03 3.148895e-03 2.514595e-03 3.820208e-03 1.290355e-02 6.743377e-07 3.127471e-03 2.965044e-03 2.965545e-03 1.511039e-02 1.502976e-02 9.921695e-03 
    30.5                2.971015e-03 2.969383e-03 2.311679e-03 3.726191e-03 1.227660e-02 5.815752e-07 2.950196e-03 2.746087e-03 2.746202e-03 1.436458e-02 1.425168e-02 9.406810e-03 
    31.5                2.926496e-03 2.925174e-03 2.215259e-03 3.685429e-03 1.188724e-02 5.414437e-07 2.906588e-03 2.574175e-03 2.574583e-03 1.390944e-02 1.380792e-02 9.228159e-03 
    32.5                2.815957e-03 2.813431e-03 2.158988e-03 3.502236e-03 1.117257e-02 4.631278e-07 2.797417e-03 2.359790e-03 2.360140e-03 1.311517e-02 1.303298e-02 8.867825e-03 
    33.5                2.807795e-03 2.805706e-03 2.128895e-03 3.560861e-03 1.077216e-02 3.893957e-07 2.790777e-03 2.179562e-03 2.179762e-03 1.275286e-02 1.264360e-02 8.874482e-03 
    34.5                2.847597e-03 2.847045e-03 2.154978e-03 3.560337e-03 1.085707e-02 3.211137e-07 2.830941e-03 2.095132e-03 2.095394e-03 1.283265e-02 1.273346e-02 8.958279e-03 
    35.5                2.730132e-03 2.727161e-03 2.081581e-03 3.386013e-03 1.000010e-02 2.340217e-07 2.714405e-03 1.956159e-03 1.956450e-03 1.191690e-02 1.183370e-02 8.579231e-03 
    36.5                2.726240e-03 2.724454e-03 2.026515e-03 3.448276e-03 9.728539e-03 1.677965e-07 2.712124e-03 1.824948e-03 1.825221e-03 1.165911e-02 1.157516e-02 8.581351e-03 
    37.5                2.791970e-03 2.790291e-03 2.111531e-03 3.514097e-03 9.838117e-03 1.628574e-07 2.777696e-03 1.765172e-03 1.765359e-03 1.185614e-02 1.173996e-02 8.804850e-03 
    38.5                2.863578e-03 2.862311e-03 2.062886e-03 3.709801e-03 9.562460e-03 1.435644e-07 2.851075e-03 1.692605e-03 1.692884e-03 1.170325e-02 1.158676e-02 9.028189e-03 
    39.5                2.953841e-03 2.950014e-03 2.262886e-03 3.573673e-03 9.543250e-03 9.424876e-08 2.941885e-03 1.641644e-03 1.641896e-03 1.170212e-02 1.166427e-02 9.219625e-03 
    40.5                2.926166e-03 2.925694e-03 2.236710e-03 3.652052e-03 9.333670e-03 1.046673e-07 2.914334e-03 1.573919e-03 1.574306e-03 1.156055e-02 1.144587e-02 9.223497e-03 
    41.5                3.107519e-03 3.105362e-03 2.272213e-03 3.952210e-03 9.322248e-03 1.239107e-07 3.096533e-03 1.553966e-03 1.554109e-03 1.178374e-02 1.167513e-02 9.764757e-03 
    42.5                3.227380e-03 3.226874e-03 2.543581e-03 3.802345e-03 9.138504e-03 3.177808e-07 3.216568e-03 1.547263e-03 1.547441e-03 1.170487e-02 1.168286e-02 1.005636e-02 
    43.5                3.195238e-03 3.192972e-03 2.511579e-03 3.959241e-03 8.661557e-03 3.984929e-07 3.185677e-03 1.500296e-03 1.500229e-03 1.140876e-02 1.126295e-02 1.009777e-02 
    44.5                3.505156e-03 3.503511e-03 2.669840e-03 4.337498e-03 8.994314e-03 3.033337e-07 3.495708e-03 1.547999e-03 1.548323e-03 1.203607e-02 1.193423e-02 1.100889e-02 
    45.5                3.624631e-03 3.622875e-03 2.967137e-03 4.278669e-03 9.092170e-03 2.262055e-07 3.615361e-03 1.549345e-03 1.549557e-03 1.227412e-02 1.216888e-02 1.138287e-02 
    46.5                3.650465e-03 3.652367e-03 2.898565e-03 4.341873e-03 8.819309e-03 1.720164e-07 3.642381e-03 1.511321e-03 1.511543e-03 1.206412e-02 1.200577e-02 1.142116e-02 
    47.5                3.819213e-03 3.814700e-03 3.063756e-03 4.565110e-03 8.731496e-03 5.086597e-07 3.810969e-03 1.535323e-03 1.535583e-03 1.232193e-02 1.220727e-02 1.199008e-02 
    48.5                4.095331e-03 4.095029e-03 3.197954e-03 4.952512e-03 8.643322e-03 5.438864e-07 4.087925e-03 1.587098e-03 1.587055e-03 1.265083e-02 1.257479e-02 1.283220e-02 
    49.5                4.452404e-03 4.453584e-03 3.609116e-03 5.387575e-03 8.927441e-03 6.995348e-07 4.446735e-03 1.648871e-03 1.648936e-03 1.351774e-02 1.331643e-02 1.405845e-02 
    50.5                4.962357e-03 4.958136e-03 3.852091e-03 6.095659e-03 9.185499e-03 6.403823e-07 4.956862e-03 1.730742e-03 1.730977e-03 1.449118e-02 1.430353e-02 1.560115e-02 
    51.5                5.633839e-03 5.631030e-03 4.473524e-03 6.593829e-03 9.504505e-03 1.008138e-06 5.628837e-03 1.814246e-03 1.814457e-03 1.561468e-02 1.562540e-02 1.754379e-02 
    52.5                5.957068e-03 5.959720e-03 5.153858e-03 6.547935e-03 9.422466e-03 1.851466e-06 5.954491e-03 1.863387e-03 1.863468e-03 1.607419e-02 1.613095e-02 1.855236e-02 
    53.5                6.059100e-03 6.056782e-03 5.377922e-03 6.589070e-03 9.000228e-03 2.159555e-06 6.058481e-03 1.886280e-03 1.886476e-03 1.601537e-02 1.603708e-02 1.891114e-02 
    54.5                6.003290e-03 5.998371e-03 5.569686e-03 6.218244e-03 8.590701e-03 2.435862e-06 6.003068e-03 1.873544e-03 1.874050e-03 1.558247e-02 1.566554e-02 1.869600e-02 
    55.5                5.864615e-03 5.861011e-03 5.566297e-03 6.234947e-03 8.176903e-03 2.966539e-06 5.864894e-03 1.847235e-03 1.847386e-03 1.530837e-02 1.517305e-02 1.847375e-02 
    56.5                5.763934e-03 5.761304e-03 5.489771e-03 5.931404e-03 7.793593e-03 3.388253e-06 5.764276e-03 1.807909e-03 1.808032e-03 1.473971e-02 1.474039e-02 1.802223e-02 
    57.5                5.384302e-03 5.378781e-03 5.366551e-03 5.375469e-03 7.123252e-03 3.683231e-06 5.385517e-03 1.724487e-03 1.724657e-03 1.373760e-02 1.368180e-02 1.690606e-02 
    58.5                5.061752e-03 5.059593e-03 5.023048e-03 5.139759e-03 6.406663e-03 3.692975e-06 5.064460e-03 1.602921e-03 1.602986e-03 1.277877e-02 1.268039e-02 1.593432e-02 
    59.5                4.820986e-03 4.819099e-03 4.720756e-03 4.898652e-03 5.896671e-03 3.061156e-06 4.823152e-03 1.471498e-03 1.471768e-03 1.198847e-02 1.193606e-02 1.512594e-02 
    60.5                4.505448e-03 4.497301e-03 4.546631e-03 4.426214e-03 5.381892e-03 2.665998e-06 4.508333e-03 1.314481e-03 1.314873e-03 1.109847e-02 1.108085e-02 1.412388e-02 
    61.5                4.071376e-03 4.070237e-03 4.125833e-03 3.842446e-03 4.632282e-03 2.649193e-06 4.074035e-03 1.151764e-03 1.151826e-03 9.767657e-03 9.887114e-03 1.266433e-02 
    62.5                3.490282e-03 3.488164e-03 3.862316e-03 3.132841e-03 3.912860e-03 2.630055e-06 3.493605e-03 9.865881e-04 9.866536e-04 8.454452e-03 8.450165e-03 1.097743e-02 
    63.5                2.867222e-03 2.863867e-03 3.217461e-03 2.549246e-03 3.093075e-03 2.631667e-06 2.870357e-03 8.171659e-04 8.172390e-04 6.902635e-03 6.866489e-03 9.035062e-03 
    64.5                2.322509e-03 2.319895e-03 2.649365e-03 2.029549e-03 2.460967e-03 2.114886e-06 2.325376e-03 6.479581e-04 6.480564e-04 5.565553e-03 5.538613e-03 7.327313e-03 
    65.5                1.833967e-03 1.833895e-03 2.130730e-03 1.530962e-03 1.871037e-03 1.888281e-06 1.836541e-03 4.906330e-04 4.907012e-04 4.324110e-03 4.338873e-03 5.762262e-03 
    66.5                1.399698e-03 1.397848e-03 1.731746e-03 1.084071e-03 1.391428e-03 1.674553e-06 1.401959e-03 3.543968e-04 3.544284e-04 3.293345e-03 3.293576e-03 4.411431e-03 
    67.5                9.754528e-04 9.732977e-04 1.302036e-03 6.872795e-04 9.406734e-04 1.321797e-06 9.774065e-04 2.333547e-04 2.334093e-04 2.302909e-03 2.283542e-03 3.095999e-03 
    68.5                6.187950e-04 6.177306e-04 8.952898e-04 3.792633e-04 5.747872e-04 9.767106e-07 6.202450e-04 1.363216e-04 1.363163e-04 1.457668e-03 1.441008e-03 1.974611e-03 
    69.5                3.405985e-04 3.402605e-04 5.617455e-04 1.588165e-04 3.099326e-04 7.220749e-07 3.417596e-04 6.794696e-05 6.796171e-05 8.132522e-04 7.927661e-04 1.101374e-03 
    70.5                1.495940e-04 1.494344e-04 3.053856e-04 3.649862e-05 1.333702e-04 5.021300e-07 1.501884e-04 2.777202e-05 2.777049e-05 3.781169e-04 3.483696e-04 5.045411e-04 
    71.5                4.574333e-05 4.587834e-05 1.306478e-04 3.223941e-06 4.023028e-05 2.446260e-07 4.608721e-05 8.154007e-06 8.153409e-06 1.428084e-04 1.072979e-04 1.775681e-04 
    72.5                8.150713e-06 8.124479e-06 2.842549e-05 7.964628e-08 6.085667e-06 4.866945e-08 8.260750e-06 1.456956e-06 1.459111e-06 2.951940e-05 1.864760e-05 3.540269e-05 
    73.5                4.941673e-07 4.950032e-07 2.446663e-06 0.000000e+00 4.315679e-07 8.468368e-11 5.057441e-07 6.727241e-08 6.729116e-08 2.492829e-06 1.148052e-06 2.738394e-06 
    74.5                0.000000e+00 0.000000e+00 0.000000e+00 0.000000e+00 0.000000e+00 0.000000e+00 0.000000e+00 0.000000e+00 0.000000e+00 0.000000e+00 0.000000e+00 0.000000e+00 
    75.5                0.000000e+00 0.000000e+00 0.000000e+00 0.000000e+00 0.000000e+00 0.000000e+00 0.000000e+00 0.000000e+00 0.000000e+00 0.000000e+00 0.000000e+00 0.000000e+00 
    76.5                0.000000e+00 0.000000e+00 0.000000e+00 0.000000e+00 0.000000e+00 0.000000e+00 0.000000e+00 0.000000e+00 0.000000e+00 0.000000e+00 0.000000e+00 0.000000e+00 
    77.5                0.000000e+00 0.000000e+00 0.000000e+00 0.000000e+00 0.000000e+00 0.000000e+00 0.000000e+00 0.000000e+00 0.000000e+00 0.000000e+00 0.000000e+00 0.000000e+00 
    78.5                0.000000e+00 0.000000e+00 0.000000e+00 0.000000e+00 0.000000e+00 0.000000e+00 0.000000e+00 0.000000e+00 0.000000e+00 0.000000e+00 0.000000e+00 0.000000e+00 
    79.5                0.000000e+00 0.000000e+00 0.000000e+00 0.000000e+00 0.000000e+00 0.000000e+00 0.000000e+00 0.000000e+00 0.000000e+00 0.000000e+00 0.000000e+00 0.000000e+00 


