# 80 rows of flux data
# 12 columns of flux data
# 
# total cross-sectional flux  1.024971e+00 /m^2/yr
#
#                       +x vernal eq.           -x           +y           -y +z eclip. N. -z eclip. S.        Earth          Sun     anti-Sun      rot (x)      rot (y)      rot (z) 
# average speed (km/s)         37.34        37.44        37.39        37.42        31.66        17.45        37.47        27.82        27.82        33.74        33.73        37.40 
# total flux (#/m2/yr)  2.231288e-01 2.410593e-01 2.297403e-01 2.338818e-01 6.342950e-01 8.831083e-05 2.308523e-01 1.664380e-01 1.664549e-01 8.500763e-01 8.503228e-01 7.286692e-01 
# velocity (km/s)
     0.5                0.000000e+00 0.000000e+00 0.000000e+00 0.000000e+00 0.000000e+00 0.000000e+00 0.000000e+00 0.000000e+00 0.000000e+00 0.000000e+00 0.000000e+00 0.000000e+00 
     1.5                0.000000e+00 0.000000e+00 0.000000e+00 0.000000e+00 0.000000e+00 0.000000e+00 0.000000e+00 0.000000e+00 0.000000e+00 0.000000e+00 0.000000e+00 0.000000e+00 
     2.5                9.417870e-05 7.255527e-05 8.496738e-05 8.012027e-05 1.553931e-04 1.077980e-07 8.937093e-05 8.407844e-05 8.421660e-05 2.509759e-04 2.523604e-04 2.605080e-04 
     3.5                4.651259e-04 4.026027e-04 4.414815e-04 4.270940e-04 7.496896e-04 7.184086e-07 4.465071e-04 4.412349e-04 4.410847e-04 1.267841e-03 1.268226e-03 1.363412e-03 
     4.5                9.114891e-04 9.102367e-04 9.149111e-04 9.140510e-04 1.635123e-03 1.786020e-06 9.199454e-04 9.747503e-04 9.747609e-04 2.718843e-03 2.712302e-03 2.866920e-03 
     5.5                1.394214e-03 1.475298e-03 1.427597e-03 1.445534e-03 2.747395e-03 2.824167e-06 1.428572e-03 1.606495e-03 1.606560e-03 4.406872e-03 4.407317e-03 4.510689e-03 
     6.5                1.837139e-03 2.042226e-03 1.918784e-03 1.965086e-03 4.126797e-03 3.299008e-06 1.924853e-03 2.236934e-03 2.237196e-03 6.287531e-03 6.288071e-03 6.097919e-03 
     7.5                2.235764e-03 2.547054e-03 2.359380e-03 2.430373e-03 5.614575e-03 3.764713e-06 2.367694e-03 2.812827e-03 2.812906e-03 8.175018e-03 8.169287e-03 7.517884e-03 
     8.5                2.622549e-03 3.006051e-03 2.758636e-03 2.846954e-03 7.081138e-03 4.355068e-06 2.770673e-03 3.351515e-03 3.351865e-03 9.982758e-03 9.999062e-03 8.822523e-03 
     9.5                2.957179e-03 3.339666e-03 3.100922e-03 3.187670e-03 8.503832e-03 4.412035e-06 3.113212e-03 3.822925e-03 3.823164e-03 1.165455e-02 1.166383e-02 9.884868e-03 
    10.5                3.266516e-03 3.623059e-03 3.408320e-03 3.488733e-03 9.915061e-03 4.286793e-06 3.400540e-03 4.263979e-03 4.264455e-03 1.325704e-02 1.325940e-02 1.082871e-02 
    11.5                3.576927e-03 3.927163e-03 3.703335e-03 3.782665e-03 1.157248e-02 4.509198e-06 3.704197e-03 4.721732e-03 4.722018e-03 1.507968e-02 1.509243e-02 1.177295e-02 
    12.5                3.727770e-03 4.216384e-03 3.917464e-03 4.029380e-03 1.283515e-02 4.649992e-06 3.926263e-03 5.048134e-03 5.048396e-03 1.645442e-02 1.645468e-02 1.248013e-02 
    13.5                3.785011e-03 4.360172e-03 3.982084e-03 4.114600e-03 1.394073e-02 4.510784e-06 4.004555e-03 5.178799e-03 5.179277e-03 1.753092e-02 1.755885e-02 1.275499e-02 
    14.5                3.844915e-03 4.321156e-03 4.017881e-03 4.126701e-03 1.456291e-02 4.326408e-06 4.027482e-03 5.229729e-03 5.230176e-03 1.810025e-02 1.811369e-02 1.281006e-02 
    15.5                3.952999e-03 4.444031e-03 4.120232e-03 4.232670e-03 1.574526e-02 4.028280e-06 4.140509e-03 5.340610e-03 5.341269e-03 1.925203e-02 1.926961e-02 1.315327e-02 
    16.5                3.958321e-03 4.412741e-03 4.137375e-03 4.241856e-03 1.606151e-02 3.785229e-06 4.135534e-03 5.358022e-03 5.358362e-03 1.952530e-02 1.952414e-02 1.315505e-02 
    17.5                3.964885e-03 4.464270e-03 4.144047e-03 4.257962e-03 1.653330e-02 3.652229e-06 4.161754e-03 5.326781e-03 5.327355e-03 1.993958e-02 1.995258e-02 1.321725e-02 
    18.5                4.021323e-03 4.430325e-03 4.173236e-03 4.266827e-03 1.703712e-02 3.512644e-06 4.177137e-03 5.288554e-03 5.289015e-03 2.038288e-02 2.038583e-02 1.326655e-02 
    19.5                4.009820e-03 4.416996e-03 4.154914e-03 4.247355e-03 1.717130e-02 3.331308e-06 4.177385e-03 5.175338e-03 5.175822e-03 2.043090e-02 2.043863e-02 1.322027e-02 
    20.5                3.907804e-03 4.333692e-03 4.074561e-03 4.172052e-03 1.698144e-02 3.032644e-06 4.074564e-03 4.986958e-03 4.987670e-03 2.011985e-02 2.011966e-02 1.295106e-02 
    21.5                3.929526e-03 4.236431e-03 4.043157e-03 4.113327e-03 1.711361e-02 2.610866e-06 4.043421e-03 4.841177e-03 4.841650e-03 2.015074e-02 2.015181e-02 1.282025e-02 
    22.5                3.882963e-03 4.279920e-03 4.045085e-03 4.135729e-03 1.739684e-02 2.400023e-06 4.060753e-03 4.717100e-03 4.717389e-03 2.037491e-02 2.036194e-02 1.283344e-02 
    23.5                3.684905e-03 4.114288e-03 3.821839e-03 3.920920e-03 1.647698e-02 2.247111e-06 3.841416e-03 4.418024e-03 4.418883e-03 1.926884e-02 1.929491e-02 1.220798e-02 
    24.5                3.615391e-03 3.841887e-03 3.704339e-03 3.755790e-03 1.580185e-02 2.065272e-06 3.697322e-03 4.153739e-03 4.154059e-03 1.845668e-02 1.845980e-02 1.171560e-02 
    25.5                3.506429e-03 3.751895e-03 3.612054e-03 3.668240e-03 1.544392e-02 1.888681e-06 3.598511e-03 3.926856e-03 3.927409e-03 1.799929e-02 1.799320e-02 1.141721e-02 
    26.5                3.433517e-03 3.655914e-03 3.517859e-03 3.569009e-03 1.488128e-02 1.689205e-06 3.518833e-03 3.718647e-03 3.718884e-03 1.735050e-02 1.735200e-02 1.113433e-02 
    27.5                3.286869e-03 3.615442e-03 3.405166e-03 3.480309e-03 1.429786e-02 1.347682e-06 3.420208e-03 3.509042e-03 3.509314e-03 1.666255e-02 1.666884e-02 1.082496e-02 
    28.5                3.190455e-03 3.447806e-03 3.284246e-03 3.344954e-03 1.368297e-02 1.044265e-06 3.288845e-03 3.245321e-03 3.246031e-03 1.592778e-02 1.593571e-02 1.042015e-02 
    29.5                2.978636e-03 3.303622e-03 3.108077e-03 3.182517e-03 1.295590e-02 9.181950e-07 3.121279e-03 2.941719e-03 2.942040e-03 1.506071e-02 1.506265e-02 9.874584e-03 
    30.5                2.872095e-03 3.090558e-03 2.936644e-03 2.987662e-03 1.235438e-02 8.301626e-07 2.943948e-03 2.724683e-03 2.724906e-03 1.430557e-02 1.431888e-02 9.335853e-03 
    31.5                2.870589e-03 2.968274e-03 2.909640e-03 2.933220e-03 1.197799e-02 6.878812e-07 2.903534e-03 2.559757e-03 2.560186e-03 1.388041e-02 1.387744e-02 9.178142e-03 
    32.5                2.773761e-03 2.906858e-03 2.781355e-03 2.812450e-03 1.124955e-02 5.666162e-07 2.797045e-03 2.349205e-03 2.349356e-03 1.307925e-02 1.310702e-02 8.856465e-03 
    33.5                2.807319e-03 2.859048e-03 2.770541e-03 2.781607e-03 1.087131e-02 4.503236e-07 2.785753e-03 2.170557e-03 2.171038e-03 1.269159e-02 1.273870e-02 8.810142e-03 
    34.5                2.773581e-03 2.939960e-03 2.797925e-03 2.837794e-03 1.094910e-02 3.237560e-07 2.826251e-03 2.083932e-03 2.084115e-03 1.277760e-02 1.281461e-02 8.915595e-03 
    35.5                2.693272e-03 2.793685e-03 2.703714e-03 2.726491e-03 1.008250e-02 2.341736e-07 2.712343e-03 1.945904e-03 1.946060e-03 1.187935e-02 1.190203e-02 8.573122e-03 
    36.5                2.695579e-03 2.696646e-03 2.740412e-03 2.741233e-03 9.835732e-03 1.597682e-07 2.710982e-03 1.816796e-03 1.817126e-03 1.166941e-02 1.162764e-02 8.539053e-03 
    37.5                2.642384e-03 2.928783e-03 2.783283e-03 2.848859e-03 9.938804e-03 1.129409e-07 2.779727e-03 1.759308e-03 1.759508e-03 1.184133e-02 1.181028e-02 8.801006e-03 
    38.5                2.725786e-03 3.026772e-03 2.812689e-03 2.886323e-03 9.711031e-03 7.875984e-08 2.851607e-03 1.687903e-03 1.688295e-03 1.168325e-02 1.170484e-02 8.995227e-03 
    39.5                2.805687e-03 3.079306e-03 2.901317e-03 2.963242e-03 9.631093e-03 5.449878e-08 2.941654e-03 1.637269e-03 1.637365e-03 1.170455e-02 1.171067e-02 9.226432e-03 
    40.5                2.931285e-03 2.900050e-03 2.958929e-03 2.952303e-03 9.446151e-03 3.276636e-08 2.916297e-03 1.569522e-03 1.569726e-03 1.156327e-02 1.151604e-02 9.221209e-03 
    41.5                3.162329e-03 2.999448e-03 3.151987e-03 3.116653e-03 9.476082e-03 1.595354e-08 3.096704e-03 1.550605e-03 1.550982e-03 1.180893e-02 1.174447e-02 9.757029e-03 
    42.5                3.203454e-03 3.230081e-03 3.203908e-03 3.211295e-03 9.227854e-03 4.230321e-09 3.215972e-03 1.543232e-03 1.543386e-03 1.170178e-02 1.171823e-02 1.008970e-02 
    43.5                3.277774e-03 3.203730e-03 3.203949e-03 3.182899e-03 8.790539e-03 2.118044e-10 3.184125e-03 1.495991e-03 1.496047e-03 1.133414e-02 1.139278e-02 1.010123e-02 
    44.5                3.600062e-03 3.409704e-03 3.493997e-03 3.447848e-03 9.157002e-03 1.136229e-10 3.488418e-03 1.543253e-03 1.543418e-03 1.199446e-02 1.203033e-02 1.095656e-02 
    45.5                3.561836e-03 3.792763e-03 3.563687e-03 3.617437e-03 9.192821e-03 1.176750e-10 3.613438e-03 1.546183e-03 1.546542e-03 1.216977e-02 1.228800e-02 1.140403e-02 
    46.5                3.662961e-03 3.703384e-03 3.617531e-03 3.629839e-03 8.941900e-03 1.208655e-07 3.646676e-03 1.511687e-03 1.511738e-03 1.202179e-02 1.212165e-02 1.147661e-02 
    47.5                3.869386e-03 3.779932e-03 3.843949e-03 3.821500e-03 8.869479e-03 2.563065e-07 3.813262e-03 1.533819e-03 1.533782e-03 1.229575e-02 1.228629e-02 1.203524e-02 
    48.5                4.155096e-03 4.100706e-03 4.053461e-03 4.041024e-03 8.829128e-03 3.567575e-07 4.087407e-03 1.581779e-03 1.582103e-03 1.259301e-02 1.270080e-02 1.284263e-02 
    49.5                4.679268e-03 4.318521e-03 4.475496e-03 4.390030e-03 9.118209e-03 1.822888e-07 4.437507e-03 1.640526e-03 1.640521e-03 1.337743e-02 1.347063e-02 1.403344e-02 
    50.5                5.290876e-03 4.598457e-03 5.063319e-03 4.900874e-03 9.449457e-03 6.573813e-08 4.946850e-03 1.723412e-03 1.723519e-03 1.444465e-02 1.439746e-02 1.558723e-02 
    51.5                5.859725e-03 5.264420e-03 5.711818e-03 5.573441e-03 9.750268e-03 1.052194e-07 5.631559e-03 1.807688e-03 1.808059e-03 1.570933e-02 1.559440e-02 1.760900e-02 
    52.5                5.864402e-03 5.861019e-03 5.989206e-03 5.990821e-03 9.547791e-03 2.030628e-07 5.948042e-03 1.855370e-03 1.855335e-03 1.614544e-02 1.595939e-02 1.862805e-02 
    53.5                5.721311e-03 6.232599e-03 6.000811e-03 6.121195e-03 9.112035e-03 2.080627e-07 6.030242e-03 1.871696e-03 1.872123e-03 1.598688e-02 1.585388e-02 1.891025e-02 
    54.5                5.626501e-03 6.219188e-03 5.865045e-03 6.004225e-03 8.617802e-03 1.168561e-07 5.960479e-03 1.852763e-03 1.852872e-03 1.544951e-02 1.542620e-02 1.862091e-02 
    55.5                5.725069e-03 6.085502e-03 5.760651e-03 5.843460e-03 8.218375e-03 1.235202e-07 5.827072e-03 1.825610e-03 1.825682e-03 1.497144e-02 1.512774e-02 1.838263e-02 
    56.5                5.555284e-03 5.846176e-03 5.669643e-03 5.735409e-03 7.806610e-03 1.119483e-07 5.721485e-03 1.783321e-03 1.783530e-03 1.453512e-02 1.452344e-02 1.791044e-02 
    57.5                5.039822e-03 5.592467e-03 5.290811e-03 5.419919e-03 7.078245e-03 4.711278e-08 5.333574e-03 1.693096e-03 1.693252e-03 1.347746e-02 1.341753e-02 1.676257e-02 
    58.5                4.719458e-03 5.288452e-03 4.934980e-03 5.070348e-03 6.397086e-03 6.737079e-08 5.000717e-03 1.566865e-03 1.566958e-03 1.245060e-02 1.245194e-02 1.571632e-02 
    59.5                4.554715e-03 5.007341e-03 4.692766e-03 4.798737e-03 5.894379e-03 1.706430e-07 4.773405e-03 1.439346e-03 1.439509e-03 1.169614e-02 1.175261e-02 1.495937e-02 
    60.5                4.169853e-03 4.775363e-03 4.385525e-03 4.526016e-03 5.328097e-03 3.098787e-07 4.468822e-03 1.286765e-03 1.286934e-03 1.085368e-02 1.088056e-02 1.402386e-02 
    61.5                3.664159e-03 4.369967e-03 3.915013e-03 4.077730e-03 4.556682e-03 2.650893e-07 4.040955e-03 1.126833e-03 1.126981e-03 9.604433e-03 9.636745e-03 1.259159e-02 
    62.5                3.088785e-03 3.872805e-03 3.360389e-03 3.543953e-03 3.771273e-03 1.892211e-07 3.454683e-03 9.616192e-04 9.615246e-04 8.201941e-03 8.241565e-03 1.088812e-02 
    63.5                2.437125e-03 3.199655e-03 2.762255e-03 2.940313e-03 2.974752e-03 1.127591e-07 2.830017e-03 7.908488e-04 7.910774e-04 6.686321e-03 6.633709e-03 8.900539e-03 
    64.5                1.980611e-03 2.634398e-03 2.221966e-03 2.373485e-03 2.352238e-03 8.723607e-08 2.295117e-03 6.269439e-04 6.269747e-04 5.363521e-03 5.380679e-03 7.235477e-03 
    65.5                1.527804e-03 2.054501e-03 1.765368e-03 1.887560e-03 1.771494e-03 9.218343e-08 1.811190e-03 4.732611e-04 4.733141e-04 4.207320e-03 4.147974e-03 5.682864e-03 
    66.5                1.112357e-03 1.623076e-03 1.329396e-03 1.449033e-03 1.286303e-03 9.079960e-08 1.376250e-03 3.392601e-04 3.392885e-04 3.169643e-03 3.130228e-03 4.331078e-03 
    67.5                7.203391e-04 1.178947e-03 9.144484e-04 1.021536e-03 8.442007e-04 8.310647e-08 9.528123e-04 2.208429e-04 2.208976e-04 2.181567e-03 2.148797e-03 3.012388e-03 
    68.5                4.111565e-04 8.002498e-04 5.637844e-04 6.538991e-04 4.956837e-04 6.280018e-08 6.020713e-04 1.271127e-04 1.271224e-04 1.354981e-03 1.349262e-03 1.907968e-03 
    69.5                1.850026e-04 4.881570e-04 3.000508e-04 3.706972e-04 2.491726e-04 5.513778e-08 3.292382e-04 6.192800e-05 6.193966e-05 7.362358e-04 7.368353e-04 1.054799e-03 
    70.5                5.740659e-05 2.426979e-04 1.200303e-04 1.627726e-04 9.471827e-05 6.581753e-08 1.395143e-04 2.356703e-05 2.356544e-05 3.068435e-04 3.214665e-04 4.577565e-04 
    71.5                1.042808e-05 8.509659e-05 3.224570e-05 4.966753e-05 2.353018e-05 6.588264e-08 3.824510e-05 6.043654e-06 6.042945e-06 8.774641e-05 9.983569e-05 1.393515e-04 
    72.5                4.691958e-07 1.614259e-05 4.259459e-06 7.950565e-06 2.650980e-06 3.225858e-08 5.656250e-06 8.863239e-07 8.877148e-07 1.285058e-05 1.693627e-05 2.264843e-05 
    73.5                2.153511e-11 1.486344e-06 1.896122e-07 5.416047e-07 8.370893e-08 6.606325e-09 3.289456e-07 4.295984e-08 4.298051e-08 7.472424e-07 1.490788e-06 1.745324e-06 
    74.5                0.000000e+00 0.000000e+00 0.000000e+00 0.000000e+00 0.000000e+00 0.000000e+00 0.000000e+00 0.000000e+00 0.000000e+00 0.000000e+00 0.000000e+00 0.000000e+00 
    75.5                0.000000e+00 0.000000e+00 0.000000e+00 0.000000e+00 0.000000e+00 0.000000e+00 0.000000e+00 0.000000e+00 0.000000e+00 0.000000e+00 0.000000e+00 0.000000e+00 
    76.5                0.000000e+00 0.000000e+00 0.000000e+00 0.000000e+00 0.000000e+00 0.000000e+00 0.000000e+00 0.000000e+00 0.000000e+00 0.000000e+00 0.000000e+00 0.000000e+00 
    77.5                0.000000e+00 0.000000e+00 0.000000e+00 0.000000e+00 0.000000e+00 0.000000e+00 0.000000e+00 0.000000e+00 0.000000e+00 0.000000e+00 0.000000e+00 0.000000e+00 
    78.5                0.000000e+00 0.000000e+00 0.000000e+00 0.000000e+00 0.000000e+00 0.000000e+00 0.000000e+00 0.000000e+00 0.000000e+00 0.000000e+00 0.000000e+00 0.000000e+00 
    79.5                0.000000e+00 0.000000e+00 0.000000e+00 0.000000e+00 0.000000e+00 0.000000e+00 0.000000e+00 0.000000e+00 0.000000e+00 0.000000e+00 0.000000e+00 0.000000e+00 


