# 80 rows of flux data
# 12 columns of flux data
# 
# total cross-sectional flux  2.238052e+00 /m^2/yr
#
#                             +x ram      -x wake      +y port -y starboard    +z zenith     -z nadir        Earth          Sun     anti-Sun      rot (x)      rot (y)      rot (z) 
# average speed (km/s)         24.30        24.30        21.87        25.04        20.86        26.48        24.30        24.54        24.54        23.41        23.75        24.16 
# total flux (#/m2/yr)  6.960532e-01 6.960027e-01 4.357167e-01 8.894278e-01 4.709408e-01 2.170943e-03 6.909557e-01 9.804857e-01 9.803712e-01 1.490677e+00 1.564167e+00 2.135390e+00 
# velocity (km/s)
     0.5                0.000000e+00 0.000000e+00 0.000000e+00 0.000000e+00 0.000000e+00 0.000000e+00 0.000000e+00 0.000000e+00 0.000000e+00 0.000000e+00 0.000000e+00 0.000000e+00 
     1.5                0.000000e+00 0.000000e+00 0.000000e+00 0.000000e+00 0.000000e+00 0.000000e+00 0.000000e+00 0.000000e+00 0.000000e+00 0.000000e+00 0.000000e+00 0.000000e+00 
     2.5                1.093350e-06 1.122279e-06 0.000000e+00 5.230610e-06 3.027870e-06 0.000000e+00 1.125834e-06 8.281444e-07 8.131832e-07 6.114858e-06 3.965406e-06 5.890739e-06 
     3.5                7.640184e-05 7.672907e-05 6.306672e-06 1.548446e-04 9.272918e-05 3.884066e-08 7.653404e-05 5.564881e-05 5.563076e-05 1.965081e-04 1.942694e-04 2.474331e-04 
     4.5                4.030125e-04 4.033772e-04 1.447221e-04 6.764758e-04 4.545994e-04 7.172545e-07 4.020045e-04 3.080904e-04 3.079728e-04 1.012743e-03 1.011237e-03 1.278087e-03 
     5.5                1.223598e-03 1.224334e-03 5.621631e-04 1.729583e-03 1.443968e-03 2.003249e-06 1.220225e-03 1.015776e-03 1.015496e-03 2.956830e-03 3.100300e-03 3.725464e-03 
     6.5                2.582643e-03 2.582771e-03 1.764709e-03 3.208299e-03 3.065749e-03 4.121397e-06 2.573954e-03 2.264439e-03 2.263950e-03 6.378145e-03 6.530636e-03 7.960880e-03 
     7.5                4.518820e-03 4.517746e-03 3.244397e-03 5.633203e-03 5.541019e-03 7.867143e-06 4.502544e-03 4.166807e-03 4.166100e-03 1.143744e-02 1.155426e-02 1.406512e-02 
     8.5                7.121679e-03 7.123129e-03 5.420086e-03 8.269488e-03 8.500993e-03 1.249826e-05 7.097550e-03 6.753697e-03 6.753345e-03 1.755279e-02 1.803467e-02 2.193590e-02 
     9.5                9.740243e-03 9.740944e-03 8.164262e-03 1.038329e-02 1.162069e-02 1.638037e-05 9.699717e-03 9.849193e-03 9.847260e-03 2.392779e-02 2.465333e-02 2.987667e-02 
    10.5                1.208438e-02 1.208396e-02 1.101793e-02 1.266831e-02 1.483782e-02 2.098021e-05 1.202540e-02 1.331068e-02 1.331016e-02 3.058741e-02 3.086468e-02 3.758119e-02 
    11.5                1.423697e-02 1.423468e-02 1.303172e-02 1.474080e-02 1.754099e-02 2.516290e-05 1.415634e-02 1.675411e-02 1.675120e-02 3.599547e-02 3.645381e-02 4.417622e-02 
    12.5                1.577717e-02 1.577265e-02 1.475493e-02 1.636482e-02 1.920344e-02 2.961335e-05 1.567422e-02 1.978215e-02 1.978242e-02 4.005908e-02 4.036458e-02 4.923438e-02 
    13.5                1.741796e-02 1.741801e-02 1.561328e-02 1.893020e-02 2.070117e-02 3.345998e-05 1.729994e-02 2.290354e-02 2.290070e-02 4.406133e-02 4.429868e-02 5.448045e-02 
    14.5                1.932454e-02 1.932418e-02 1.683671e-02 2.131905e-02 2.165440e-02 3.930658e-05 1.918506e-02 2.615870e-02 2.615607e-02 4.784628e-02 4.832230e-02 6.032242e-02 
    15.5                2.107786e-02 2.107541e-02 1.783879e-02 2.363611e-02 2.199763e-02 4.528218e-05 2.091857e-02 2.929076e-02 2.928831e-02 5.100242e-02 5.169360e-02 6.568855e-02 
    16.5                2.276811e-02 2.276707e-02 1.886160e-02 2.596554e-02 2.225295e-02 5.164257e-05 2.259178e-02 3.223894e-02 3.223459e-02 5.417243e-02 5.490057e-02 7.096400e-02 
    17.5                2.419366e-02 2.419038e-02 1.946020e-02 2.822216e-02 2.209761e-02 5.811315e-05 2.399943e-02 3.495612e-02 3.495270e-02 5.657844e-02 5.738361e-02 7.544923e-02 
    18.5                2.544921e-02 2.544526e-02 1.978015e-02 2.996637e-02 2.163539e-02 6.392922e-05 2.524110e-02 3.724327e-02 3.723889e-02 5.810833e-02 5.935981e-02 7.904129e-02 
    19.5                2.640995e-02 2.640831e-02 2.015233e-02 3.147643e-02 2.122769e-02 6.866837e-05 2.619300e-02 3.907563e-02 3.907217e-02 5.956876e-02 6.087101e-02 8.202908e-02 
    20.5                2.716018e-02 2.716066e-02 2.003351e-02 3.311946e-02 2.054989e-02 7.372984e-05 2.693696e-02 4.047474e-02 4.046944e-02 6.050900e-02 6.186667e-02 8.441228e-02 
    21.5                2.807102e-02 2.806990e-02 1.967337e-02 3.510153e-02 1.996863e-02 7.942115e-05 2.783766e-02 4.207637e-02 4.207183e-02 6.160027e-02 6.320297e-02 8.712265e-02 
    22.5                2.895100e-02 2.894997e-02 1.967630e-02 3.649258e-02 1.958760e-02 8.508378e-05 2.871101e-02 4.347366e-02 4.346895e-02 6.266107e-02 6.464339e-02 8.960827e-02 
    23.5                2.948215e-02 2.947995e-02 1.965828e-02 3.753279e-02 1.876456e-02 8.947706e-05 2.923696e-02 4.431782e-02 4.431325e-02 6.310605e-02 6.515550e-02 9.123186e-02 
    24.5                2.973825e-02 2.973669e-02 1.918384e-02 3.841988e-02 1.789602e-02 9.359563e-05 2.949354e-02 4.468528e-02 4.468035e-02 6.299613e-02 6.518665e-02 9.196187e-02 
    25.5                2.983264e-02 2.983020e-02 1.847995e-02 3.911824e-02 1.688483e-02 9.727129e-05 2.958929e-02 4.472197e-02 4.471555e-02 6.243681e-02 6.484986e-02 9.211278e-02 
    26.5                2.942269e-02 2.942168e-02 1.765414e-02 3.884190e-02 1.571331e-02 1.000011e-04 2.918796e-02 4.393822e-02 4.393309e-02 6.080954e-02 6.353214e-02 9.061529e-02 
    27.5                2.872239e-02 2.872133e-02 1.649169e-02 3.862141e-02 1.458554e-02 1.010929e-04 2.849482e-02 4.278192e-02 4.277721e-02 5.893899e-02 6.167418e-02 8.842156e-02 
    28.5                2.795587e-02 2.795409e-02 1.530557e-02 3.800713e-02 1.348555e-02 1.012820e-04 2.773789e-02 4.139279e-02 4.138801e-02 5.670419e-02 5.972947e-02 8.580615e-02 
    29.5                2.684857e-02 2.684691e-02 1.404818e-02 3.687027e-02 1.233058e-02 1.004490e-04 2.664271e-02 3.950672e-02 3.950044e-02 5.388237e-02 5.708941e-02 8.219278e-02 
    30.5                2.559132e-02 2.559013e-02 1.276774e-02 3.558516e-02 1.116497e-02 9.782741e-05 2.539941e-02 3.741542e-02 3.741094e-02 5.089874e-02 5.417292e-02 7.820490e-02 
    31.5                2.413872e-02 2.413699e-02 1.136943e-02 3.391253e-02 9.955749e-03 9.475212e-05 2.396147e-02 3.496923e-02 3.496447e-02 4.742974e-02 5.086945e-02 7.351398e-02 
    32.5                2.234537e-02 2.234331e-02 9.791217e-03 3.166162e-02 8.761359e-03 9.048365e-05 2.218607e-02 3.198974e-02 3.198649e-02 4.324827e-02 4.692389e-02 6.770979e-02 
    33.5                2.026290e-02 2.026153e-02 8.320100e-03 2.888678e-02 7.604972e-03 8.401980e-05 2.012267e-02 2.867398e-02 2.866922e-02 3.869829e-02 4.242958e-02 6.111258e-02 
    34.5                1.814537e-02 1.814306e-02 6.965005e-03 2.605445e-02 6.529318e-03 7.605883e-05 1.802236e-02 2.538494e-02 2.538240e-02 3.423843e-02 3.789312e-02 5.449385e-02 
    35.5                1.598917e-02 1.598874e-02 5.649684e-03 2.311819e-02 5.505714e-03 6.805091e-05 1.588548e-02 2.207416e-02 2.207054e-02 2.973742e-02 3.330836e-02 4.777844e-02 
    36.5                1.385661e-02 1.385520e-02 4.364077e-03 2.015198e-02 4.568552e-03 5.942300e-05 1.376934e-02 1.881966e-02 1.881693e-02 2.527144e-02 2.879509e-02 4.109836e-02 
    37.5                1.173555e-02 1.173394e-02 3.270100e-03 1.714946e-02 3.725152e-03 5.072296e-05 1.166385e-02 1.568056e-02 1.567959e-02 2.099993e-02 2.434086e-02 3.456335e-02 
    38.5                9.680940e-03 9.679473e-03 2.367289e-03 1.409441e-02 2.952105e-03 4.200368e-05 9.624412e-03 1.268278e-02 1.268112e-02 1.689494e-02 2.003905e-02 2.823700e-02 
    39.5                7.658519e-03 7.657170e-03 1.636418e-03 1.105984e-02 2.242800e-03 3.362034e-05 7.615964e-03 9.822488e-03 9.821058e-03 1.300606e-02 1.582290e-02 2.210944e-02 
    40.5                5.766518e-03 5.765005e-03 1.050598e-03 8.235642e-03 1.626008e-03 2.548166e-05 5.735779e-03 7.231960e-03 7.231026e-03 9.498448e-03 1.189399e-02 1.645922e-02 
    41.5                4.126103e-03 4.124935e-03 6.318682e-04 5.845190e-03 1.127156e-03 1.833313e-05 4.105078e-03 5.068995e-03 5.068079e-03 6.615932e-03 8.499366e-03 1.166671e-02 
    42.5                2.809086e-03 2.808161e-03 3.488541e-04 3.917965e-03 7.419953e-04 1.260247e-05 2.795588e-03 3.369543e-03 3.369453e-03 4.353776e-03 5.778575e-03 7.849261e-03 
    43.5                1.756992e-03 1.756280e-03 1.840625e-04 2.355459e-03 4.407161e-04 8.138582e-06 1.749089e-03 2.045727e-03 2.045431e-03 2.589246e-03 3.606918e-03 4.823070e-03 
    44.5                9.669776e-04 9.663743e-04 8.854200e-05 1.229432e-03 2.278061e-04 4.700816e-06 9.628202e-04 1.089594e-03 1.089514e-03 1.342821e-03 1.980359e-03 2.600630e-03 
    45.5                4.414735e-04 4.414933e-04 3.620617e-05 5.115391e-04 9.431221e-05 2.335798e-06 4.400945e-04 4.768158e-04 4.766763e-04 5.578880e-04 9.014969e-04 1.150890e-03 
    46.5                1.491452e-04 1.490260e-04 1.265224e-05 1.505062e-04 2.775984e-05 9.072999e-07 1.486107e-04 1.533406e-04 1.534547e-04 1.661597e-04 3.033282e-04 3.744822e-04 
    47.5                3.535678e-05 3.539305e-05 3.158787e-06 2.956791e-05 5.460026e-06 2.474197e-07 3.530198e-05 3.440594e-05 3.440123e-05 3.332813e-05 7.165852e-05 8.486297e-05 
    48.5                4.875876e-06 4.882035e-06 4.989311e-07 2.698521e-06 5.068528e-07 4.200795e-08 4.869558e-06 4.347894e-06 4.342776e-06 3.258773e-06 9.814323e-06 1.080239e-05 
    49.5                1.604753e-07 1.560476e-07 2.896451e-08 2.386986e-08 5.069668e-09 2.368561e-09 1.554177e-07 1.283046e-07 1.296453e-07 5.385690e-08 3.166754e-07 3.226356e-07 
    50.5                0.000000e+00 0.000000e+00 0.000000e+00 0.000000e+00 0.000000e+00 0.000000e+00 0.000000e+00 0.000000e+00 0.000000e+00 0.000000e+00 0.000000e+00 0.000000e+00 
    51.5                0.000000e+00 0.000000e+00 0.000000e+00 0.000000e+00 0.000000e+00 0.000000e+00 0.000000e+00 0.000000e+00 0.000000e+00 0.000000e+00 0.000000e+00 0.000000e+00 
    52.5                0.000000e+00 0.000000e+00 0.000000e+00 0.000000e+00 0.000000e+00 0.000000e+00 0.000000e+00 0.000000e+00 0.000000e+00 0.000000e+00 0.000000e+00 0.000000e+00 
    53.5                0.000000e+00 0.000000e+00 0.000000e+00 0.000000e+00 0.000000e+00 0.000000e+00 0.000000e+00 0.000000e+00 0.000000e+00 0.000000e+00 0.000000e+00 0.000000e+00 
    54.5                0.000000e+00 0.000000e+00 0.000000e+00 0.000000e+00 0.000000e+00 0.000000e+00 0.000000e+00 0.000000e+00 0.000000e+00 0.000000e+00 0.000000e+00 0.000000e+00 
    55.5                0.000000e+00 0.000000e+00 0.000000e+00 0.000000e+00 0.000000e+00 0.000000e+00 0.000000e+00 0.000000e+00 0.000000e+00 0.000000e+00 0.000000e+00 0.000000e+00 
    56.5                0.000000e+00 0.000000e+00 0.000000e+00 0.000000e+00 0.000000e+00 0.000000e+00 0.000000e+00 0.000000e+00 0.000000e+00 0.000000e+00 0.000000e+00 0.000000e+00 
    57.5                0.000000e+00 0.000000e+00 0.000000e+00 0.000000e+00 0.000000e+00 0.000000e+00 0.000000e+00 0.000000e+00 0.000000e+00 0.000000e+00 0.000000e+00 0.000000e+00 
    58.5                0.000000e+00 0.000000e+00 0.000000e+00 0.000000e+00 0.000000e+00 0.000000e+00 0.000000e+00 0.000000e+00 0.000000e+00 0.000000e+00 0.000000e+00 0.000000e+00 
    59.5                0.000000e+00 0.000000e+00 0.000000e+00 0.000000e+00 0.000000e+00 0.000000e+00 0.000000e+00 0.000000e+00 0.000000e+00 0.000000e+00 0.000000e+00 0.000000e+00 
    60.5                0.000000e+00 0.000000e+00 0.000000e+00 0.000000e+00 0.000000e+00 0.000000e+00 0.000000e+00 0.000000e+00 0.000000e+00 0.000000e+00 0.000000e+00 0.000000e+00 
    61.5                0.000000e+00 0.000000e+00 0.000000e+00 0.000000e+00 0.000000e+00 0.000000e+00 0.000000e+00 0.000000e+00 0.000000e+00 0.000000e+00 0.000000e+00 0.000000e+00 
    62.5                0.000000e+00 0.000000e+00 0.000000e+00 0.000000e+00 0.000000e+00 0.000000e+00 0.000000e+00 0.000000e+00 0.000000e+00 0.000000e+00 0.000000e+00 0.000000e+00 
    63.5                0.000000e+00 0.000000e+00 0.000000e+00 0.000000e+00 0.000000e+00 0.000000e+00 0.000000e+00 0.000000e+00 0.000000e+00 0.000000e+00 0.000000e+00 0.000000e+00 
    64.5                0.000000e+00 0.000000e+00 0.000000e+00 0.000000e+00 0.000000e+00 0.000000e+00 0.000000e+00 0.000000e+00 0.000000e+00 0.000000e+00 0.000000e+00 0.000000e+00 
    65.5                0.000000e+00 0.000000e+00 0.000000e+00 0.000000e+00 0.000000e+00 0.000000e+00 0.000000e+00 0.000000e+00 0.000000e+00 0.000000e+00 0.000000e+00 0.000000e+00 
    66.5                0.000000e+00 0.000000e+00 0.000000e+00 0.000000e+00 0.000000e+00 0.000000e+00 0.000000e+00 0.000000e+00 0.000000e+00 0.000000e+00 0.000000e+00 0.000000e+00 
    67.5                0.000000e+00 0.000000e+00 0.000000e+00 0.000000e+00 0.000000e+00 0.000000e+00 0.000000e+00 0.000000e+00 0.000000e+00 0.000000e+00 0.000000e+00 0.000000e+00 
    68.5                0.000000e+00 0.000000e+00 0.000000e+00 0.000000e+00 0.000000e+00 0.000000e+00 0.000000e+00 0.000000e+00 0.000000e+00 0.000000e+00 0.000000e+00 0.000000e+00 
    69.5                0.000000e+00 0.000000e+00 0.000000e+00 0.000000e+00 0.000000e+00 0.000000e+00 0.000000e+00 0.000000e+00 0.000000e+00 0.000000e+00 0.000000e+00 0.000000e+00 
    70.5                0.000000e+00 0.000000e+00 0.000000e+00 0.000000e+00 0.000000e+00 0.000000e+00 0.000000e+00 0.000000e+00 0.000000e+00 0.000000e+00 0.000000e+00 0.000000e+00 
    71.5                0.000000e+00 0.000000e+00 0.000000e+00 0.000000e+00 0.000000e+00 0.000000e+00 0.000000e+00 0.000000e+00 0.000000e+00 0.000000e+00 0.000000e+00 0.000000e+00 
    72.5                0.000000e+00 0.000000e+00 0.000000e+00 0.000000e+00 0.000000e+00 0.000000e+00 0.000000e+00 0.000000e+00 0.000000e+00 0.000000e+00 0.000000e+00 0.000000e+00 
    73.5                0.000000e+00 0.000000e+00 0.000000e+00 0.000000e+00 0.000000e+00 0.000000e+00 0.000000e+00 0.000000e+00 0.000000e+00 0.000000e+00 0.000000e+00 0.000000e+00 
    74.5                0.000000e+00 0.000000e+00 0.000000e+00 0.000000e+00 0.000000e+00 0.000000e+00 0.000000e+00 0.000000e+00 0.000000e+00 0.000000e+00 0.000000e+00 0.000000e+00 
    75.5                0.000000e+00 0.000000e+00 0.000000e+00 0.000000e+00 0.000000e+00 0.000000e+00 0.000000e+00 0.000000e+00 0.000000e+00 0.000000e+00 0.000000e+00 0.000000e+00 
    76.5                0.000000e+00 0.000000e+00 0.000000e+00 0.000000e+00 0.000000e+00 0.000000e+00 0.000000e+00 0.000000e+00 0.000000e+00 0.000000e+00 0.000000e+00 0.000000e+00 
    77.5                0.000000e+00 0.000000e+00 0.000000e+00 0.000000e+00 0.000000e+00 0.000000e+00 0.000000e+00 0.000000e+00 0.000000e+00 0.000000e+00 0.000000e+00 0.000000e+00 
    78.5                0.000000e+00 0.000000e+00 0.000000e+00 0.000000e+00 0.000000e+00 0.000000e+00 0.000000e+00 0.000000e+00 0.000000e+00 0.000000e+00 0.000000e+00 0.000000e+00 
    79.5                0.000000e+00 0.000000e+00 0.000000e+00 0.000000e+00 0.000000e+00 0.000000e+00 0.000000e+00 0.000000e+00 0.000000e+00 0.000000e+00 0.000000e+00 0.000000e+00 


