# 80 rows of flux data
# 12 columns of flux data
# 
# total cross-sectional flux  2.030739e+00 /m^2/yr
#
#                             +x ram      -x wake      +y port -y starboard    +z zenith     -z nadir        Earth          Sun     anti-Sun      rot (x)      rot (y)      rot (z) 
# average speed (km/s)         23.99        23.99        17.32        23.73        23.71        23.45        23.99        24.29        24.29        23.19        23.87        23.66 
# total flux (#/m2/yr)  6.339674e-01 6.335259e-01 1.008099e-01 6.068720e-01 1.052491e+00 5.790806e-04 6.274539e-01 8.888035e-01 8.884979e-01 1.346268e+00 1.834469e+00 1.582961e+00 
# velocity (km/s)
     0.5                0.000000e+00 0.000000e+00 0.000000e+00 0.000000e+00 0.000000e+00 0.000000e+00 0.000000e+00 0.000000e+00 0.000000e+00 0.000000e+00 0.000000e+00 0.000000e+00 
     1.5                0.000000e+00 0.000000e+00 0.000000e+00 0.000000e+00 0.000000e+00 0.000000e+00 0.000000e+00 0.000000e+00 0.000000e+00 0.000000e+00 0.000000e+00 0.000000e+00 
     2.5                9.303928e-07 9.728922e-07 5.594603e-09 2.265401e-06 5.358079e-06 0.000000e+00 9.682587e-07 7.332990e-07 7.193189e-07 5.883614e-06 5.833518e-06 3.187843e-06 
     3.5                7.556151e-05 7.674161e-05 8.251357e-06 8.760269e-05 1.815628e-04 1.973037e-08 7.635398e-05 5.716399e-05 5.709714e-05 2.157287e-04 2.603141e-04 1.989387e-04 
     4.5                4.114223e-04 4.143041e-04 8.429941e-05 4.805900e-04 8.872103e-04 2.214574e-07 4.118422e-04 3.273012e-04 3.268622e-04 1.134251e-03 1.343356e-03 1.104855e-03 
     5.5                1.306257e-03 1.309695e-03 3.811199e-04 1.433826e-03 2.519394e-03 9.520078e-07 1.302830e-03 1.139295e-03 1.137768e-03 3.402080e-03 4.038037e-03 3.502626e-03 
     6.5                2.594486e-03 2.596789e-03 8.981574e-04 2.763390e-03 4.793776e-03 2.300698e-06 2.583068e-03 2.357996e-03 2.355872e-03 6.642310e-03 7.873882e-03 6.965190e-03 
     7.5                4.591649e-03 4.595428e-03 1.687320e-03 4.932800e-03 8.550252e-03 4.213375e-06 4.571944e-03 4.291995e-03 4.289153e-03 1.191680e-02 1.397493e-02 1.243292e-02 
     8.5                7.184763e-03 7.186114e-03 2.586812e-03 7.392675e-03 1.279269e-02 6.874973e-06 7.148546e-03 6.885810e-03 6.883828e-03 1.793630e-02 2.142147e-02 1.917790e-02 
     9.5                9.459564e-03 9.457978e-03 3.735068e-03 9.568077e-03 1.639751e-02 9.921354e-06 9.402856e-03 9.781556e-03 9.778086e-03 2.341727e-02 2.790737e-02 2.534622e-02 
    10.5                1.149767e-02 1.149359e-02 4.918576e-03 1.162718e-02 2.003470e-02 1.247052e-05 1.141648e-02 1.297264e-02 1.296955e-02 2.881269e-02 3.399131e-02 3.103994e-02 
    11.5                1.348660e-02 1.347590e-02 6.062695e-03 1.329792e-02 2.313941e-02 1.509394e-05 1.337966e-02 1.600039e-02 1.599468e-02 3.344501e-02 3.958337e-02 3.637555e-02 
    12.5                1.474034e-02 1.472863e-02 6.604516e-03 1.443872e-02 2.537217e-02 1.666377e-05 1.461130e-02 1.853614e-02 1.853089e-02 3.646133e-02 4.334993e-02 3.973456e-02 
    13.5                1.654845e-02 1.654216e-02 7.114125e-03 1.630854e-02 2.871988e-02 1.818800e-05 1.640263e-02 2.166476e-02 2.165628e-02 4.090277e-02 4.880211e-02 4.452669e-02 
    14.5                1.831145e-02 1.830153e-02 7.170351e-03 1.792490e-02 3.157779e-02 1.943131e-05 1.813860e-02 2.465807e-02 2.465014e-02 4.436650e-02 5.385153e-02 4.874094e-02 
    15.5                1.994063e-02 1.992840e-02 6.827535e-03 1.947615e-02 3.411367e-02 2.031361e-05 1.974412e-02 2.753764e-02 2.752872e-02 4.717381e-02 5.845131e-02 5.243247e-02 
    16.5                2.137703e-02 2.136610e-02 6.564318e-03 2.081658e-02 3.640025e-02 2.120407e-05 2.116200e-02 2.998836e-02 2.997805e-02 4.965807e-02 6.252144e-02 5.565334e-02 
    17.5                2.267261e-02 2.266192e-02 5.988767e-03 2.210190e-02 3.851329e-02 2.181077e-05 2.243743e-02 3.249782e-02 3.248725e-02 5.173058e-02 6.624748e-02 5.839631e-02 
    18.5                2.378790e-02 2.377029e-02 5.390020e-03 2.305564e-02 4.001734e-02 2.241880e-05 2.353116e-02 3.446709e-02 3.445462e-02 5.305878e-02 6.921343e-02 6.058058e-02 
    19.5                2.449342e-02 2.447976e-02 4.935237e-03 2.372398e-02 4.114958e-02 2.272168e-05 2.422920e-02 3.585597e-02 3.584407e-02 5.395841e-02 7.123683e-02 6.195454e-02 
    20.5                2.512418e-02 2.511291e-02 4.408895e-03 2.433267e-02 4.214543e-02 2.283655e-05 2.485078e-02 3.702839e-02 3.701634e-02 5.462518e-02 7.302020e-02 6.313440e-02 
    21.5                2.604085e-02 2.602931e-02 3.845847e-03 2.528766e-02 4.368798e-02 2.311044e-05 2.575386e-02 3.865183e-02 3.863845e-02 5.597231e-02 7.567484e-02 6.499361e-02 
    22.5                2.680170e-02 2.678718e-02 3.555354e-03 2.585209e-02 4.469802e-02 2.358143e-05 2.650379e-02 3.984689e-02 3.983370e-02 5.683072e-02 7.769238e-02 6.653471e-02 
    23.5                2.707292e-02 2.705727e-02 3.053935e-03 2.604579e-02 4.497963e-02 2.359965e-05 2.677009e-02 4.024592e-02 4.023285e-02 5.666120e-02 7.834993e-02 6.680269e-02 
    24.5                2.719424e-02 2.717919e-02 2.647359e-03 2.612471e-02 4.511012e-02 2.343900e-05 2.689037e-02 4.041796e-02 4.040402e-02 5.634675e-02 7.864735e-02 6.681639e-02 
    25.5                2.714843e-02 2.713175e-02 2.257938e-03 2.595429e-02 4.482742e-02 2.321910e-05 2.684492e-02 4.026098e-02 4.024708e-02 5.553469e-02 7.835876e-02 6.637775e-02 
    26.5                2.656741e-02 2.654829e-02 1.917486e-03 2.526883e-02 4.364477e-02 2.275793e-05 2.626963e-02 3.926509e-02 3.925150e-02 5.371695e-02 7.652693e-02 6.471226e-02 
    27.5                2.584173e-02 2.582516e-02 1.629493e-03 2.458429e-02 4.248600e-02 2.188374e-05 2.555416e-02 3.812962e-02 3.811754e-02 5.195441e-02 7.445542e-02 6.280502e-02 
    28.5                2.505070e-02 2.503241e-02 1.379774e-03 2.372928e-02 4.102284e-02 2.115535e-05 2.477258e-02 3.677902e-02 3.676599e-02 4.989403e-02 7.205367e-02 6.071031e-02 
    29.5                2.393142e-02 2.391367e-02 1.154496e-03 2.260101e-02 3.908418e-02 2.019459e-05 2.366751e-02 3.497351e-02 3.496103e-02 4.729037e-02 6.875970e-02 5.785817e-02 
    30.5                2.267837e-02 2.266097e-02 9.404860e-04 2.135131e-02 3.693418e-02 1.909549e-05 2.243063e-02 3.295399e-02 3.294337e-02 4.445529e-02 6.508482e-02 5.470222e-02 
    31.5                2.121963e-02 2.120155e-02 7.541581e-04 1.989786e-02 3.443056e-02 1.789496e-05 2.098896e-02 3.061176e-02 3.060116e-02 4.123440e-02 6.080653e-02 5.106400e-02 
    32.5                1.955617e-02 1.953810e-02 5.954105e-04 1.823479e-02 3.155929e-02 1.654405e-05 1.934621e-02 2.795083e-02 2.794161e-02 3.763790e-02 5.591519e-02 4.694696e-02 
    33.5                1.764315e-02 1.762577e-02 4.729990e-04 1.637177e-02 2.833831e-02 1.501094e-05 1.745566e-02 2.499184e-02 2.498265e-02 3.368669e-02 5.035016e-02 4.227366e-02 
    34.5                1.570886e-02 1.569155e-02 3.700130e-04 1.451029e-02 2.512272e-02 1.338803e-05 1.554319e-02 2.205126e-02 2.204380e-02 2.976584e-02 4.475020e-02 3.756956e-02 
    35.5                1.375168e-02 1.373631e-02 2.785528e-04 1.265742e-02 2.191855e-02 1.177415e-05 1.360878e-02 1.911789e-02 1.911068e-02 2.588214e-02 3.912595e-02 3.284160e-02 
    36.5                1.187617e-02 1.186161e-02 2.003065e-04 1.086410e-02 1.881615e-02 1.020975e-05 1.175449e-02 1.631841e-02 1.631320e-02 2.214567e-02 3.370335e-02 2.829810e-02 
    37.5                1.003038e-02 1.001681e-02 1.424007e-04 9.126069e-03 1.580868e-02 8.679110e-06 9.928412e-03 1.362484e-02 1.362009e-02 1.855439e-02 2.840649e-02 2.385801e-02 
    38.5                8.245522e-03 8.232677e-03 9.788495e-05 7.417766e-03 1.285147e-02 7.225500e-06 8.162606e-03 1.103329e-02 1.102923e-02 1.504698e-02 2.324733e-02 1.955202e-02 
    39.5                6.493006e-03 6.481671e-03 6.347187e-05 5.766258e-03 9.991758e-03 5.794156e-06 6.428682e-03 8.545258e-03 8.542099e-03 1.167262e-02 1.821537e-02 1.534581e-02 
    40.5                4.872629e-03 4.862631e-03 3.938959e-05 4.262604e-03 7.387419e-03 4.439932e-06 4.824655e-03 6.302387e-03 6.300299e-03 8.613727e-03 1.359133e-02 1.147452e-02 
    41.5                3.479210e-03 3.471589e-03 2.300247e-05 3.007097e-03 5.212320e-03 3.230494e-06 3.445475e-03 4.427700e-03 4.425824e-03 6.066853e-03 9.661084e-03 8.170030e-03 
    42.5                2.369494e-03 2.363267e-03 1.266059e-05 2.007832e-03 3.480874e-03 2.251238e-06 2.346459e-03 2.954212e-03 2.953342e-03 4.045720e-03 6.529799e-03 5.538861e-03 
    43.5                1.474149e-03 1.469494e-03 6.651621e-06 1.203429e-03 2.086759e-03 1.472171e-06 1.459824e-03 1.788475e-03 1.787642e-03 2.422909e-03 4.007064e-03 3.418928e-03 
    44.5                8.040481e-04 8.006646e-04 3.029276e-06 6.266961e-04 1.086922e-03 8.483558e-07 7.958840e-04 9.455835e-04 9.451972e-04 1.260917e-03 2.149098e-03 1.846889e-03 
    45.5                3.618021e-04 3.599618e-04 1.200154e-06 2.604078e-04 4.517850e-04 4.180242e-07 3.581161e-04 4.080733e-04 4.077603e-04 5.239025e-04 9.409072e-04 8.185609e-04 
    46.5                1.183141e-04 1.174991e-04 3.887319e-07 7.655905e-05 1.328577e-04 1.579795e-07 1.169925e-04 1.271427e-04 1.271809e-04 1.540916e-04 2.979435e-04 2.630716e-04 
    47.5                2.699690e-05 2.680005e-05 8.715110e-08 1.502609e-05 2.608603e-05 4.171006e-08 2.670353e-05 2.738192e-05 2.735859e-05 3.026886e-05 6.516351e-05 5.870798e-05 
    48.5                3.451201e-06 3.422100e-06 1.241162e-08 1.371714e-06 2.383897e-06 6.406551e-09 3.412905e-06 3.162378e-06 3.167577e-06 2.772984e-06 7.685695e-06 7.203584e-06 
    49.5                7.897458e-08 7.954054e-08 4.616505e-10 1.229657e-08 2.133513e-08 2.576803e-10 7.934093e-08 6.447147e-08 6.474313e-08 2.539972e-08 1.609371e-07 1.593456e-07 
    50.5                0.000000e+00 0.000000e+00 0.000000e+00 0.000000e+00 0.000000e+00 0.000000e+00 0.000000e+00 0.000000e+00 0.000000e+00 0.000000e+00 0.000000e+00 0.000000e+00 
    51.5                0.000000e+00 0.000000e+00 0.000000e+00 0.000000e+00 0.000000e+00 0.000000e+00 0.000000e+00 0.000000e+00 0.000000e+00 0.000000e+00 0.000000e+00 0.000000e+00 
    52.5                0.000000e+00 0.000000e+00 0.000000e+00 0.000000e+00 0.000000e+00 0.000000e+00 0.000000e+00 0.000000e+00 0.000000e+00 0.000000e+00 0.000000e+00 0.000000e+00 
    53.5                0.000000e+00 0.000000e+00 0.000000e+00 0.000000e+00 0.000000e+00 0.000000e+00 0.000000e+00 0.000000e+00 0.000000e+00 0.000000e+00 0.000000e+00 0.000000e+00 
    54.5                0.000000e+00 0.000000e+00 0.000000e+00 0.000000e+00 0.000000e+00 0.000000e+00 0.000000e+00 0.000000e+00 0.000000e+00 0.000000e+00 0.000000e+00 0.000000e+00 
    55.5                0.000000e+00 0.000000e+00 0.000000e+00 0.000000e+00 0.000000e+00 0.000000e+00 0.000000e+00 0.000000e+00 0.000000e+00 0.000000e+00 0.000000e+00 0.000000e+00 
    56.5                0.000000e+00 0.000000e+00 0.000000e+00 0.000000e+00 0.000000e+00 0.000000e+00 0.000000e+00 0.000000e+00 0.000000e+00 0.000000e+00 0.000000e+00 0.000000e+00 
    57.5                0.000000e+00 0.000000e+00 0.000000e+00 0.000000e+00 0.000000e+00 0.000000e+00 0.000000e+00 0.000000e+00 0.000000e+00 0.000000e+00 0.000000e+00 0.000000e+00 
    58.5                0.000000e+00 0.000000e+00 0.000000e+00 0.000000e+00 0.000000e+00 0.000000e+00 0.000000e+00 0.000000e+00 0.000000e+00 0.000000e+00 0.000000e+00 0.000000e+00 
    59.5                0.000000e+00 0.000000e+00 0.000000e+00 0.000000e+00 0.000000e+00 0.000000e+00 0.000000e+00 0.000000e+00 0.000000e+00 0.000000e+00 0.000000e+00 0.000000e+00 
    60.5                0.000000e+00 0.000000e+00 0.000000e+00 0.000000e+00 0.000000e+00 0.000000e+00 0.000000e+00 0.000000e+00 0.000000e+00 0.000000e+00 0.000000e+00 0.000000e+00 
    61.5                0.000000e+00 0.000000e+00 0.000000e+00 0.000000e+00 0.000000e+00 0.000000e+00 0.000000e+00 0.000000e+00 0.000000e+00 0.000000e+00 0.000000e+00 0.000000e+00 
    62.5                0.000000e+00 0.000000e+00 0.000000e+00 0.000000e+00 0.000000e+00 0.000000e+00 0.000000e+00 0.000000e+00 0.000000e+00 0.000000e+00 0.000000e+00 0.000000e+00 
    63.5                0.000000e+00 0.000000e+00 0.000000e+00 0.000000e+00 0.000000e+00 0.000000e+00 0.000000e+00 0.000000e+00 0.000000e+00 0.000000e+00 0.000000e+00 0.000000e+00 
    64.5                0.000000e+00 0.000000e+00 0.000000e+00 0.000000e+00 0.000000e+00 0.000000e+00 0.000000e+00 0.000000e+00 0.000000e+00 0.000000e+00 0.000000e+00 0.000000e+00 
    65.5                0.000000e+00 0.000000e+00 0.000000e+00 0.000000e+00 0.000000e+00 0.000000e+00 0.000000e+00 0.000000e+00 0.000000e+00 0.000000e+00 0.000000e+00 0.000000e+00 
    66.5                0.000000e+00 0.000000e+00 0.000000e+00 0.000000e+00 0.000000e+00 0.000000e+00 0.000000e+00 0.000000e+00 0.000000e+00 0.000000e+00 0.000000e+00 0.000000e+00 
    67.5                0.000000e+00 0.000000e+00 0.000000e+00 0.000000e+00 0.000000e+00 0.000000e+00 0.000000e+00 0.000000e+00 0.000000e+00 0.000000e+00 0.000000e+00 0.000000e+00 
    68.5                0.000000e+00 0.000000e+00 0.000000e+00 0.000000e+00 0.000000e+00 0.000000e+00 0.000000e+00 0.000000e+00 0.000000e+00 0.000000e+00 0.000000e+00 0.000000e+00 
    69.5                0.000000e+00 0.000000e+00 0.000000e+00 0.000000e+00 0.000000e+00 0.000000e+00 0.000000e+00 0.000000e+00 0.000000e+00 0.000000e+00 0.000000e+00 0.000000e+00 
    70.5                0.000000e+00 0.000000e+00 0.000000e+00 0.000000e+00 0.000000e+00 0.000000e+00 0.000000e+00 0.000000e+00 0.000000e+00 0.000000e+00 0.000000e+00 0.000000e+00 
    71.5                0.000000e+00 0.000000e+00 0.000000e+00 0.000000e+00 0.000000e+00 0.000000e+00 0.000000e+00 0.000000e+00 0.000000e+00 0.000000e+00 0.000000e+00 0.000000e+00 
    72.5                0.000000e+00 0.000000e+00 0.000000e+00 0.000000e+00 0.000000e+00 0.000000e+00 0.000000e+00 0.000000e+00 0.000000e+00 0.000000e+00 0.000000e+00 0.000000e+00 
    73.5                0.000000e+00 0.000000e+00 0.000000e+00 0.000000e+00 0.000000e+00 0.000000e+00 0.000000e+00 0.000000e+00 0.000000e+00 0.000000e+00 0.000000e+00 0.000000e+00 
    74.5                0.000000e+00 0.000000e+00 0.000000e+00 0.000000e+00 0.000000e+00 0.000000e+00 0.000000e+00 0.000000e+00 0.000000e+00 0.000000e+00 0.000000e+00 0.000000e+00 
    75.5                0.000000e+00 0.000000e+00 0.000000e+00 0.000000e+00 0.000000e+00 0.000000e+00 0.000000e+00 0.000000e+00 0.000000e+00 0.000000e+00 0.000000e+00 0.000000e+00 
    76.5                0.000000e+00 0.000000e+00 0.000000e+00 0.000000e+00 0.000000e+00 0.000000e+00 0.000000e+00 0.000000e+00 0.000000e+00 0.000000e+00 0.000000e+00 0.000000e+00 
    77.5                0.000000e+00 0.000000e+00 0.000000e+00 0.000000e+00 0.000000e+00 0.000000e+00 0.000000e+00 0.000000e+00 0.000000e+00 0.000000e+00 0.000000e+00 0.000000e+00 
    78.5                0.000000e+00 0.000000e+00 0.000000e+00 0.000000e+00 0.000000e+00 0.000000e+00 0.000000e+00 0.000000e+00 0.000000e+00 0.000000e+00 0.000000e+00 0.000000e+00 
    79.5                0.000000e+00 0.000000e+00 0.000000e+00 0.000000e+00 0.000000e+00 0.000000e+00 0.000000e+00 0.000000e+00 0.000000e+00 0.000000e+00 0.000000e+00 0.000000e+00 


