# 80 rows of flux data
# 12 columns of flux data
# 
# total cross-sectional flux  1.053422e+00 /m^2/yr
#
#                             +x ram      -x wake      +y port -y starboard    +z zenith     -z nadir        Earth          Sun     anti-Sun      rot (x)      rot (y)      rot (z) 
# average speed (km/s)         38.21        36.93        40.23        27.92        34.69        35.50        38.98        27.65        28.16        33.74        36.10        34.70 
# total flux (#/m2/yr)  2.185207e-01 2.602422e-01 2.191409e-01 3.685046e-01 5.062285e-01 3.795204e-04 4.010588e-01 1.673536e-01 1.734398e-01 8.719656e-01 7.747773e-01 8.320950e-01 
# velocity (km/s)
     0.5                0.000000e+00 0.000000e+00 0.000000e+00 0.000000e+00 0.000000e+00 0.000000e+00 0.000000e+00 0.000000e+00 0.000000e+00 0.000000e+00 0.000000e+00 0.000000e+00 
     1.5                0.000000e+00 0.000000e+00 0.000000e+00 0.000000e+00 0.000000e+00 0.000000e+00 0.000000e+00 0.000000e+00 0.000000e+00 0.000000e+00 0.000000e+00 0.000000e+00 
     2.5                1.188212e-04 2.840214e-05 7.742367e-05 7.894590e-05 1.553682e-04 6.869946e-08 1.438906e-04 7.496722e-05 8.271646e-05 2.465594e-04 2.396218e-04 2.385175e-04 
     3.5                4.753894e-04 3.429774e-04 4.260943e-04 3.533334e-04 7.922933e-04 4.086377e-07 7.697568e-04 4.076202e-04 4.422355e-04 1.246756e-03 1.270777e-03 1.255531e-03 
     4.5                8.488217e-04 9.526582e-04 9.333212e-04 7.906331e-04 1.703175e-03 1.048622e-06 1.641027e-03 9.377854e-04 9.828864e-04 2.719887e-03 2.765850e-03 2.768060e-03 
     5.5                1.265997e-03 1.621892e-03 1.465273e-03 1.407477e-03 2.739049e-03 1.853610e-06 2.561015e-03 1.579873e-03 1.627556e-03 4.456292e-03 4.434420e-03 4.513378e-03 
     6.5                1.646453e-03 2.305007e-03 1.950423e-03 2.242972e-03 3.876328e-03 2.694761e-06 3.438409e-03 2.237311e-03 2.273497e-03 6.396150e-03 6.168687e-03 6.380191e-03 
     7.5                2.016409e-03 2.883469e-03 2.343171e-03 3.221800e-03 4.982590e-03 3.464348e-06 4.188413e-03 2.840271e-03 2.866941e-03 8.347969e-03 7.785097e-03 8.201601e-03 
     8.5                2.359620e-03 3.409092e-03 2.683117e-03 4.208774e-03 6.028429e-03 4.215183e-06 4.844620e-03 3.399915e-03 3.410623e-03 1.020966e-02 9.290320e-03 9.922056e-03 
     9.5                2.618776e-03 3.827622e-03 2.909882e-03 5.211735e-03 6.985547e-03 4.743176e-06 5.359976e-03 3.877534e-03 3.890534e-03 1.191098e-02 1.057299e-02 1.142607e-02 
    10.5                2.925028e-03 4.167447e-03 3.104737e-03 6.230818e-03 7.874215e-03 5.345399e-06 5.793532e-03 4.326435e-03 4.356261e-03 1.355350e-02 1.178140e-02 1.289493e-02 
    11.5                3.153074e-03 4.539337e-03 3.260165e-03 7.468536e-03 8.898235e-03 5.772714e-06 6.205889e-03 4.779198e-03 4.825856e-03 1.540926e-02 1.305920e-02 1.447989e-02 
    12.5                3.327873e-03 4.810949e-03 3.342656e-03 8.451775e-03 9.616754e-03 6.280333e-06 6.468975e-03 5.107098e-03 5.164240e-03 1.680329e-02 1.396952e-02 1.567329e-02 
    13.5                3.362839e-03 4.970620e-03 3.274882e-03 9.395285e-03 1.020040e-02 6.296050e-06 6.493540e-03 5.236970e-03 5.296046e-03 1.787675e-02 1.459305e-02 1.655329e-02 
    14.5                3.484706e-03 4.869779e-03 3.226549e-03 9.920789e-03 1.049642e-02 6.351601e-06 6.476410e-03 5.286506e-03 5.354418e-03 1.844826e-02 1.484756e-02 1.697475e-02 
    15.5                3.548339e-03 5.026110e-03 3.182399e-03 1.090223e-02 1.110760e-02 6.402006e-06 6.548919e-03 5.404422e-03 5.472107e-03 1.961603e-02 1.550244e-02 1.790973e-02 
    16.5                3.597072e-03 4.977462e-03 3.133240e-03 1.116276e-02 1.122878e-02 6.336326e-06 6.500813e-03 5.416619e-03 5.484195e-03 1.985928e-02 1.559366e-02 1.807878e-02 
    17.5                3.609597e-03 4.997132e-03 3.088543e-03 1.158126e-02 1.142679e-02 6.530258e-06 6.477676e-03 5.385387e-03 5.454035e-03 2.030212e-02 1.577972e-02 1.840975e-02 
    18.5                3.672689e-03 4.962464e-03 3.023653e-03 1.204325e-02 1.162967e-02 6.733191e-06 6.434441e-03 5.347525e-03 5.417472e-03 2.076317e-02 1.595917e-02 1.875442e-02 
    19.5                3.655438e-03 4.919379e-03 2.972020e-03 1.214037e-02 1.163763e-02 6.552927e-06 6.392254e-03 5.231428e-03 5.305005e-03 2.081651e-02 1.589637e-02 1.871625e-02 
    20.5                3.600868e-03 4.845554e-03 2.827358e-03 1.208501e-02 1.139407e-02 6.590426e-06 6.168683e-03 5.046519e-03 5.116480e-03 2.048718e-02 1.559229e-02 1.842993e-02 
    21.5                3.650386e-03 4.695430e-03 2.797811e-03 1.221274e-02 1.139011e-02 6.873952e-06 6.105973e-03 4.908621e-03 4.979173e-03 2.057605e-02 1.551255e-02 1.842857e-02 
    22.5                3.576354e-03 4.764385e-03 2.758020e-03 1.247139e-02 1.147592e-02 7.093912e-06 6.081911e-03 4.784473e-03 4.857223e-03 2.083184e-02 1.557340e-02 1.859435e-02 
    23.5                3.431218e-03 4.540617e-03 2.581601e-03 1.182518e-02 1.082860e-02 6.807077e-06 5.725632e-03 4.482520e-03 4.549389e-03 1.969906e-02 1.475113e-02 1.761289e-02 
    24.5                3.350865e-03 4.281684e-03 2.467330e-03 1.134773e-02 1.033862e-02 6.770587e-06 5.488861e-03 4.217053e-03 4.281418e-03 1.889033e-02 1.408886e-02 1.685400e-02 
    25.5                3.261939e-03 4.185920e-03 2.342999e-03 1.112291e-02 1.005770e-02 6.444047e-06 5.297803e-03 3.983636e-03 4.046834e-03 1.840352e-02 1.370423e-02 1.640573e-02 
    26.5                3.237141e-03 4.011577e-03 2.323458e-03 1.067428e-02 9.675621e-03 6.636654e-06 5.192216e-03 3.773888e-03 3.839236e-03 1.779051e-02 1.323801e-02 1.584916e-02 
    27.5                3.113092e-03 3.949913e-03 2.293745e-03 1.022790e-02 9.257852e-03 7.080971e-06 5.057168e-03 3.572067e-03 3.636429e-03 1.715318e-02 1.275176e-02 1.528800e-02 
    28.5                3.048325e-03 3.776541e-03 2.248656e-03 9.762385e-03 8.813845e-03 7.417678e-06 4.877171e-03 3.310053e-03 3.375370e-03 1.645313e-02 1.221711e-02 1.467411e-02 
    29.5                2.831219e-03 3.638897e-03 2.167905e-03 9.185707e-03 8.315027e-03 7.048411e-06 4.643159e-03 2.999250e-03 3.065238e-03 1.556245e-02 1.154815e-02 1.386188e-02 
    30.5                2.757390e-03 3.369411e-03 2.021159e-03 8.785275e-03 7.883173e-03 6.789896e-06 4.358506e-03 2.780766e-03 2.841622e-03 1.479185e-02 1.093291e-02 1.316011e-02 
    31.5                2.753673e-03 3.262881e-03 2.037604e-03 8.470058e-03 7.605446e-03 7.216791e-06 4.312568e-03 2.616336e-03 2.679030e-03 1.440462e-02 1.062767e-02 1.280763e-02 
    32.5                2.649635e-03 3.179145e-03 2.061491e-03 7.822739e-03 7.164420e-03 7.066675e-06 4.215005e-03 2.400278e-03 2.466574e-03 1.360647e-02 1.013359e-02 1.212847e-02 
    33.5                2.715776e-03 3.094339e-03 2.159753e-03 7.412983e-03 6.940283e-03 7.249424e-06 4.262251e-03 2.214559e-03 2.287294e-03 1.324038e-02 9.946131e-03 1.183184e-02 
    34.5                2.721380e-03 3.153457e-03 2.225869e-03 7.385656e-03 6.969928e-03 7.288780e-06 4.344606e-03 2.126962e-03 2.203518e-03 1.332631e-02 1.002370e-02 1.189519e-02 
    35.5                2.630596e-03 3.038571e-03 2.278037e-03 6.594303e-03 6.482778e-03 7.098413e-06 4.269301e-03 1.985036e-03 2.063864e-03 1.240648e-02 9.484428e-03 1.112797e-02 
    36.5                2.685135e-03 2.948774e-03 2.355892e-03 6.310846e-03 6.354210e-03 7.205453e-06 4.321269e-03 1.852593e-03 1.934989e-03 1.217699e-02 9.367291e-03 1.092867e-02 
    37.5                2.768610e-03 3.071512e-03 2.444659e-03 6.281494e-03 6.451722e-03 7.067416e-06 4.460077e-03 1.791484e-03 1.877336e-03 1.232066e-02 9.607445e-03 1.111991e-02 
    38.5                2.975165e-03 2.985937e-03 2.625689e-03 5.898962e-03 6.433964e-03 6.934996e-06 4.685046e-03 1.712414e-03 1.806868e-03 1.218933e-02 9.691781e-03 1.103837e-02 
    39.5                2.865378e-03 3.226111e-03 2.804929e-03 5.669914e-03 6.479060e-03 7.163082e-06 4.915145e-03 1.657673e-03 1.758108e-03 1.223336e-02 9.842059e-03 1.109974e-02 
    40.5                2.957292e-03 3.168835e-03 2.827544e-03 5.494268e-03 6.359790e-03 7.303251e-06 4.899445e-03 1.588024e-03 1.687653e-03 1.203829e-02 9.783689e-03 1.100151e-02 
    41.5                3.267684e-03 3.207692e-03 3.124959e-03 5.255651e-03 6.568648e-03 7.382020e-06 5.322254e-03 1.561658e-03 1.672589e-03 1.229722e-02 1.022868e-02 1.130192e-02 
    42.5                3.171984e-03 3.493665e-03 3.355437e-03 4.816675e-03 6.622254e-03 7.069902e-06 5.644714e-03 1.548153e-03 1.666861e-03 1.220505e-02 1.043557e-02 1.129363e-02 
    43.5                3.355108e-03 3.394749e-03 3.364703e-03 4.438262e-03 6.461107e-03 6.839010e-06 5.651407e-03 1.497350e-03 1.614944e-03 1.178640e-02 1.037763e-02 1.108469e-02 
    44.5                3.693664e-03 3.556768e-03 3.757810e-03 4.396347e-03 6.931896e-03 7.224841e-06 6.281203e-03 1.537859e-03 1.669170e-03 1.250255e-02 1.115545e-02 1.175761e-02 
    45.5                3.671509e-03 3.921575e-03 3.928889e-03 4.226860e-03 7.087791e-03 7.127379e-06 6.561299e-03 1.537880e-03 1.672509e-03 1.266029e-02 1.155109e-02 1.203765e-02 
    46.5                3.763028e-03 3.839042e-03 4.022070e-03 3.958508e-03 7.057187e-03 6.879572e-06 6.680197e-03 1.498596e-03 1.635178e-03 1.249271e-02 1.154452e-02 1.192318e-02 
    47.5                4.017798e-03 3.988555e-03 4.249534e-03 3.785321e-03 7.270817e-03 6.984976e-06 7.043273e-03 1.516208e-03 1.657785e-03 1.268964e-02 1.204058e-02 1.229292e-02 
    48.5                4.398043e-03 4.078323e-03 4.580488e-03 3.537131e-03 7.658590e-03 6.834015e-06 7.635606e-03 1.557951e-03 1.708676e-03 1.304636e-02 1.271477e-02 1.275290e-02 
    49.5                4.832723e-03 4.512621e-03 5.018749e-03 3.450329e-03 8.204898e-03 7.133392e-06 8.364563e-03 1.611180e-03 1.774364e-03 1.377786e-02 1.384115e-02 1.373039e-02 
    50.5                5.536943e-03 4.809307e-03 5.629402e-03 3.305234e-03 9.011656e-03 7.356273e-06 9.426017e-03 1.685633e-03 1.866758e-03 1.479335e-02 1.527825e-02 1.492135e-02 
    51.5                6.094874e-03 5.487010e-03 6.432506e-03 3.112122e-03 1.008363e-02 7.493904e-06 1.083104e-02 1.758027e-03 1.961772e-03 1.607675e-02 1.710384e-02 1.640944e-02 
    52.5                6.091146e-03 6.178926e-03 6.802067e-03 2.841291e-03 1.052411e-02 7.465933e-06 1.150494e-02 1.800424e-03 2.011470e-03 1.642846e-02 1.799721e-02 1.707365e-02 
    53.5                6.171493e-03 6.296605e-03 6.904501e-03 2.550377e-03 1.058014e-02 7.185840e-06 1.171583e-02 1.816267e-03 2.026163e-03 1.625092e-02 1.820287e-02 1.712641e-02 
    54.5                5.811797e-03 6.409788e-03 6.825867e-03 2.284561e-03 1.039609e-02 6.839618e-06 1.161740e-02 1.799569e-03 2.002892e-03 1.578026e-02 1.786917e-02 1.669611e-02 
    55.5                5.863705e-03 6.335221e-03 6.673285e-03 2.114088e-03 1.012924e-02 6.670345e-06 1.137292e-02 1.774946e-03 1.969497e-03 1.527601e-02 1.763840e-02 1.644870e-02 
    56.5                5.589229e-03 6.198324e-03 6.557493e-03 1.902594e-03 9.895579e-03 6.309123e-06 1.119284e-02 1.733734e-03 1.921558e-03 1.480094e-02 1.713113e-02 1.589367e-02 
    57.5                5.100868e-03 5.965074e-03 6.110469e-03 1.674274e-03 9.201753e-03 5.870557e-06 1.045200e-02 1.649818e-03 1.820549e-03 1.366639e-02 1.602253e-02 1.481927e-02 
    58.5                4.890247e-03 5.483350e-03 5.726032e-03 1.442170e-03 8.592514e-03 5.357839e-06 9.818442e-03 1.526392e-03 1.683333e-03 1.264238e-02 1.498795e-02 1.380620e-02 
    59.5                4.663613e-03 5.184261e-03 5.465335e-03 1.245328e-03 8.161223e-03 4.970059e-06 9.386804e-03 1.399908e-03 1.547173e-03 1.190438e-02 1.422999e-02 1.305534e-02 
    60.5                4.244024e-03 5.007209e-03 5.112990e-03 1.090992e-03 7.615526e-03 4.626785e-06 8.794894e-03 1.248572e-03 1.383440e-03 1.102418e-02 1.333112e-02 1.219816e-02 
    61.5                3.694372e-03 4.531169e-03 4.624733e-03 8.671154e-04 6.853866e-03 3.988260e-06 7.971042e-03 1.092595e-03 1.211952e-03 9.797628e-03 1.192262e-02 1.084515e-02 
    62.5                3.021090e-03 4.181703e-03 3.952045e-03 7.053480e-04 5.849142e-03 3.490841e-06 6.820884e-03 9.331703e-04 1.032773e-03 8.306221e-03 1.031625e-02 9.383665e-03 
    63.5                2.468144e-03 3.416101e-03 3.238181e-03 5.206067e-04 4.773189e-03 2.813709e-06 5.594388e-03 7.685028e-04 8.484789e-04 6.725602e-03 8.426330e-03 7.643304e-03 
    64.5                1.974231e-03 2.812862e-03 2.625830e-03 4.015671e-04 3.865272e-03 2.266736e-06 4.540199e-03 6.086563e-04 6.722429e-04 5.418251e-03 6.842521e-03 6.197580e-03 
    65.5                1.504924e-03 2.234757e-03 2.072668e-03 2.853730e-04 3.040660e-03 1.751300e-06 3.587271e-03 4.587055e-04 5.078142e-04 4.224330e-03 5.361996e-03 4.839551e-03 
    66.5                1.070263e-03 1.792603e-03 1.575184e-03 1.984956e-04 2.305058e-03 1.314472e-06 2.728959e-03 3.281580e-04 3.646730e-04 3.177199e-03 4.086101e-03 3.682986e-03 
    67.5                6.854701e-04 1.314721e-03 1.089376e-03 1.245185e-04 1.589380e-03 9.181819e-07 1.888621e-03 2.129942e-04 2.376610e-04 2.172007e-03 2.839553e-03 2.556599e-03 
    68.5                3.848050e-04 8.834412e-04 6.882375e-04 6.899907e-05 1.001187e-03 5.767296e-07 1.194629e-03 1.219950e-04 1.372137e-04 1.352740e-03 1.795752e-03 1.613086e-03 
    69.5                1.701271e-04 5.397679e-04 3.758979e-04 3.343926e-05 5.453058e-04 3.208687e-07 6.534087e-04 5.901106e-05 6.713631e-05 7.291522e-04 9.928887e-04 8.923117e-04 
    70.5                4.356465e-05 2.701744e-04 1.584851e-04 1.260625e-05 2.292303e-04 1.468970e-07 2.756574e-04 2.221915e-05 2.553988e-05 3.033966e-04 4.304435e-04 3.879943e-04 
    71.5                5.760586e-06 9.726998e-05 4.249622e-05 3.540227e-06 6.142991e-05 5.402995e-08 7.403221e-05 5.591019e-06 6.449100e-06 8.108852e-05 1.310522e-04 1.205435e-04 
    72.5                1.269905e-07 1.698596e-05 5.821749e-06 4.353641e-07 8.375844e-06 1.027016e-08 1.018143e-05 7.855801e-07 8.987426e-07 1.094015e-05 2.053137e-05 1.919033e-05 
    73.5                0.000000e+00 1.291412e-06 2.785081e-07 1.249656e-08 3.978562e-07 9.441321e-10 4.938443e-07 3.213152e-08 3.737390e-08 5.079612e-07 1.390198e-06 1.345056e-06 
    74.5                0.000000e+00 0.000000e+00 0.000000e+00 0.000000e+00 0.000000e+00 0.000000e+00 0.000000e+00 0.000000e+00 0.000000e+00 0.000000e+00 0.000000e+00 0.000000e+00 
    75.5                0.000000e+00 0.000000e+00 0.000000e+00 0.000000e+00 0.000000e+00 0.000000e+00 0.000000e+00 0.000000e+00 0.000000e+00 0.000000e+00 0.000000e+00 0.000000e+00 
    76.5                0.000000e+00 0.000000e+00 0.000000e+00 0.000000e+00 0.000000e+00 0.000000e+00 0.000000e+00 0.000000e+00 0.000000e+00 0.000000e+00 0.000000e+00 0.000000e+00 
    77.5                0.000000e+00 0.000000e+00 0.000000e+00 0.000000e+00 0.000000e+00 0.000000e+00 0.000000e+00 0.000000e+00 0.000000e+00 0.000000e+00 0.000000e+00 0.000000e+00 
    78.5                0.000000e+00 0.000000e+00 0.000000e+00 0.000000e+00 0.000000e+00 0.000000e+00 0.000000e+00 0.000000e+00 0.000000e+00 0.000000e+00 0.000000e+00 0.000000e+00 
    79.5                0.000000e+00 0.000000e+00 0.000000e+00 0.000000e+00 0.000000e+00 0.000000e+00 0.000000e+00 0.000000e+00 0.000000e+00 0.000000e+00 0.000000e+00 0.000000e+00 


