# 80 rows of flux data
# 12 columns of flux data
# 
# total cross-sectional flux  1.003206e+00 /m^2/yr
#
#                             +x ram      -x wake      +y port -y starboard    +z zenith     -z nadir        Earth          Sun     anti-Sun      rot (x)      rot (y)      rot (z) 
# average speed (km/s)         37.70        37.71        27.79        39.47        35.68        33.58        37.73        28.18        28.18        33.84        36.72        34.51 
# total flux (#/m2/yr)  2.295654e-01 2.295183e-01 3.644700e-01 2.153788e-01 4.604666e-01 4.060668e-04 2.291088e-01 1.577878e-01 1.577403e-01 8.284475e-01 7.245999e-01 8.095104e-01 
# velocity (km/s)
     0.5                0.000000e+00 0.000000e+00 0.000000e+00 0.000000e+00 0.000000e+00 0.000000e+00 0.000000e+00 0.000000e+00 0.000000e+00 0.000000e+00 0.000000e+00 0.000000e+00 
     1.5                0.000000e+00 0.000000e+00 0.000000e+00 0.000000e+00 0.000000e+00 0.000000e+00 0.000000e+00 0.000000e+00 0.000000e+00 0.000000e+00 0.000000e+00 0.000000e+00 
     2.5                8.945101e-05 9.038502e-05 5.162043e-05 9.868475e-05 1.988210e-04 3.613573e-08 8.981067e-05 9.313924e-05 9.307744e-05 2.729281e-04 2.962655e-04 2.592597e-04 
     3.5                4.594267e-04 4.595072e-04 3.221591e-04 4.730914e-04 8.674173e-04 4.241718e-07 4.569698e-04 4.717875e-04 4.715449e-04 1.309010e-03 1.407893e-03 1.336897e-03 
     4.5                8.892652e-04 8.883192e-04 7.651594e-04 8.666218e-04 1.625917e-03 1.081663e-06 8.834071e-04 9.478806e-04 9.475692e-04 2.569366e-03 2.688481e-03 2.659434e-03 
     5.5                1.352679e-03 1.351263e-03 1.366041e-03 1.296341e-03 2.482165e-03 1.882555e-06 1.343747e-03 1.494777e-03 1.494220e-03 4.067469e-03 4.095849e-03 4.183228e-03 
     6.5                1.798434e-03 1.795965e-03 2.205524e-03 1.670196e-03 3.357721e-03 2.768873e-06 1.786730e-03 2.021945e-03 2.021396e-03 5.724395e-03 5.492902e-03 5.834052e-03 
     7.5                2.215184e-03 2.211691e-03 3.174947e-03 2.008054e-03 4.259547e-03 3.619230e-06 2.200513e-03 2.530828e-03 2.530085e-03 7.464329e-03 6.857176e-03 7.509474e-03 
     8.5                2.607536e-03 2.603934e-03 4.160628e-03 2.312047e-03 5.111210e-03 4.403992e-06 2.591246e-03 3.030684e-03 3.030114e-03 9.159537e-03 8.145765e-03 9.148040e-03 
     9.5                2.914164e-03 2.909992e-03 5.182801e-03 2.506948e-03 5.851167e-03 5.155589e-06 2.895920e-03 3.452051e-03 3.451188e-03 1.069770e-02 9.210463e-03 1.059158e-02 
    10.5                3.234227e-03 3.230273e-03 6.203241e-03 2.755615e-03 6.661456e-03 5.891804e-06 3.214252e-03 3.916378e-03 3.915507e-03 1.233403e-02 1.034886e-02 1.210081e-02 
    11.5                3.507917e-03 3.502902e-03 7.484035e-03 2.902747e-03 7.447860e-03 6.572394e-06 3.486810e-03 4.322288e-03 4.321251e-03 1.406392e-02 1.140269e-02 1.369343e-02 
    12.5                3.723270e-03 3.718082e-03 8.467185e-03 2.968523e-03 8.021196e-03 7.228533e-06 3.701801e-03 4.576423e-03 4.575537e-03 1.533058e-02 1.218356e-02 1.484997e-02 
    13.5                3.808657e-03 3.802568e-03 9.456783e-03 2.956217e-03 8.414274e-03 7.498318e-06 3.788311e-03 4.706397e-03 4.705195e-03 1.640927e-02 1.263327e-02 1.582614e-02 
    14.5                3.856178e-03 3.850999e-03 9.996482e-03 2.992756e-03 8.829148e-03 7.651696e-06 3.836919e-03 4.793837e-03 4.792552e-03 1.713912e-02 1.304238e-02 1.638303e-02 
    15.5                3.983638e-03 3.978349e-03 1.105658e-02 2.975314e-03 9.263170e-03 7.894446e-06 3.965005e-03 4.940262e-03 4.939111e-03 1.830249e-02 1.357072e-02 1.743773e-02 
    16.5                4.003321e-03 3.998078e-03 1.135117e-02 3.008440e-03 9.429022e-03 8.042457e-06 3.985194e-03 4.986689e-03 4.985707e-03 1.869132e-02 1.373536e-02 1.774638e-02 
    17.5                4.020532e-03 4.016269e-03 1.175574e-02 2.988218e-03 9.582813e-03 8.337041e-06 4.004690e-03 4.932836e-03 4.931853e-03 1.910482e-02 1.388375e-02 1.808597e-02 
    18.5                4.061300e-03 4.056204e-03 1.219738e-02 2.994027e-03 9.827599e-03 8.453203e-06 4.044652e-03 4.942769e-03 4.941757e-03 1.963736e-02 1.413709e-02 1.849880e-02 
    19.5                4.064243e-03 4.059900e-03 1.234277e-02 2.925871e-03 9.797530e-03 8.522447e-06 4.049427e-03 4.817438e-03 4.816280e-03 1.968237e-02 1.410143e-02 1.853841e-02 
    20.5                3.960710e-03 3.957434e-03 1.220500e-02 2.909252e-03 9.622381e-03 8.755983e-06 3.947158e-03 4.663766e-03 4.662808e-03 1.944863e-02 1.379821e-02 1.823663e-02 
    21.5                3.983116e-03 3.979637e-03 1.229192e-02 2.971875e-03 9.735746e-03 9.150417e-06 3.970139e-03 4.589302e-03 4.588309e-03 1.965127e-02 1.393075e-02 1.837932e-02 
    22.5                3.967288e-03 3.963441e-03 1.254319e-02 2.852636e-03 9.671553e-03 9.418389e-06 3.955650e-03 4.420710e-03 4.419512e-03 1.970703e-02 1.384615e-02 1.843315e-02 
    23.5                3.766809e-03 3.763466e-03 1.183033e-02 2.782896e-03 9.159037e-03 9.282646e-06 3.755699e-03 4.159179e-03 4.158654e-03 1.872395e-02 1.312181e-02 1.748360e-02 
    24.5                3.636895e-03 3.634078e-03 1.130374e-02 2.709215e-03 8.835338e-03 9.342993e-06 3.626335e-03 3.917156e-03 3.916064e-03 1.799562e-02 1.265883e-02 1.676010e-02 
    25.5                3.555039e-03 3.553073e-03 1.105842e-02 2.633304e-03 8.569000e-03 9.361391e-06 3.545633e-03 3.727341e-03 3.726700e-03 1.756170e-02 1.231329e-02 1.635819e-02 
    26.5                3.483825e-03 3.481297e-03 1.059057e-02 2.690285e-03 8.339910e-03 9.368251e-06 3.474587e-03 3.548966e-03 3.547957e-03 1.708310e-02 1.201446e-02 1.588044e-02 
    27.5                3.388277e-03 3.385413e-03 1.007459e-02 2.654483e-03 7.910564e-03 9.230799e-06 3.378823e-03 3.337929e-03 3.337151e-03 1.635658e-02 1.151650e-02 1.523918e-02 
    28.5                3.266485e-03 3.265552e-03 9.501969e-03 2.684655e-03 7.617334e-03 8.877483e-06 3.259769e-03 3.066581e-03 3.065723e-03 1.570700e-02 1.109876e-02 1.458701e-02 
    29.5                3.083330e-03 3.081165e-03 8.923023e-03 2.462130e-03 7.083378e-03 8.436900e-06 3.076149e-03 2.783198e-03 2.782570e-03 1.465353e-02 1.039285e-02 1.363997e-02 
    30.5                2.931609e-03 2.929648e-03 8.532950e-03 2.460499e-03 6.838831e-03 8.088401e-06 2.925420e-03 2.619772e-03 2.618915e-03 1.416213e-02 9.960637e-03 1.311117e-02 
    31.5                2.910495e-03 2.909071e-03 8.193982e-03 2.504514e-03 6.680754e-03 8.184534e-06 2.905161e-03 2.450185e-03 2.449795e-03 1.382522e-02 9.793511e-03 1.278649e-02 
    32.5                2.816250e-03 2.815330e-03 7.525806e-03 2.535172e-03 6.267725e-03 8.109010e-06 2.812069e-03 2.257375e-03 2.256781e-03 1.304135e-02 9.334564e-03 1.211109e-02 
    33.5                2.812650e-03 2.812436e-03 7.057013e-03 2.643196e-03 6.225452e-03 7.783987e-06 2.809418e-03 2.104686e-03 2.104078e-03 1.271971e-02 9.299715e-03 1.176962e-02 
    34.5                2.858726e-03 2.856141e-03 7.108679e-03 2.688984e-03 6.214627e-03 7.745755e-06 2.853515e-03 2.039703e-03 2.039113e-03 1.281682e-02 9.352865e-03 1.188598e-02 
    35.5                2.754064e-03 2.755810e-03 6.309407e-03 2.730784e-03 5.808944e-03 7.467769e-06 2.752581e-03 1.898691e-03 1.898135e-03 1.193357e-02 8.884318e-03 1.111291e-02 
    36.5                2.750870e-03 2.750334e-03 5.982695e-03 2.818918e-03 5.828779e-03 7.386299e-06 2.748268e-03 1.772951e-03 1.772467e-03 1.174050e-02 8.904641e-03 1.089370e-02 
    37.5                2.847965e-03 2.848376e-03 5.966813e-03 2.934202e-03 5.941473e-03 7.280657e-06 2.846343e-03 1.732320e-03 1.731686e-03 1.194202e-02 9.139974e-03 1.110432e-02 
    38.5                2.992603e-03 2.994308e-03 5.644836e-03 3.264589e-03 6.174432e-03 7.002737e-06 2.992899e-03 1.687808e-03 1.687365e-03 1.216025e-02 9.556313e-03 1.131601e-02 
    39.5                2.968976e-03 2.971037e-03 5.430877e-03 3.154644e-03 5.935187e-03 7.060579e-06 2.969002e-03 1.618193e-03 1.617315e-03 1.171406e-02 9.345547e-03 1.100736e-02 
    40.5                2.988969e-03 2.992528e-03 5.217101e-03 3.287737e-03 6.025768e-03 6.824983e-06 2.990120e-03 1.551409e-03 1.550978e-03 1.172419e-02 9.445820e-03 1.096007e-02 
    41.5                3.278672e-03 3.279818e-03 5.020376e-03 3.692768e-03 6.468016e-03 6.779547e-06 3.277525e-03 1.586086e-03 1.585616e-03 1.227360e-02 1.024606e-02 1.154914e-02 
    42.5                3.276032e-03 3.277150e-03 4.641863e-03 3.597574e-03 6.223678e-03 6.593605e-06 3.274633e-03 1.534124e-03 1.533288e-03 1.170327e-02 1.006975e-02 1.116400e-02 
    43.5                3.323427e-03 3.325732e-03 4.194938e-03 3.797757e-03 6.424280e-03 6.153283e-06 3.322093e-03 1.514884e-03 1.514135e-03 1.168559e-02 1.029877e-02 1.108330e-02 
    44.5                3.663901e-03 3.664948e-03 4.262889e-03 4.204110e-03 6.989420e-03 6.347141e-06 3.662988e-03 1.588514e-03 1.587836e-03 1.254443e-02 1.128429e-02 1.195964e-02 
    45.5                3.702753e-03 3.706955e-03 4.087944e-03 4.183149e-03 6.910089e-03 6.280913e-06 3.704012e-03 1.528668e-03 1.527865e-03 1.233047e-02 1.129519e-02 1.186126e-02 
    46.5                3.790307e-03 3.788046e-03 3.874316e-03 4.261274e-03 7.025304e-03 6.144758e-06 3.784367e-03 1.524864e-03 1.524319e-03 1.229809e-02 1.151376e-02 1.190669e-02 
    47.5                3.964659e-03 3.969351e-03 3.656827e-03 4.487332e-03 7.404599e-03 5.920643e-06 3.966078e-03 1.577846e-03 1.576975e-03 1.261621e-02 1.209635e-02 1.222446e-02 
    48.5                4.372228e-03 4.373035e-03 3.447733e-03 4.884670e-03 7.998004e-03 5.955061e-06 4.368510e-03 1.616742e-03 1.615830e-03 1.326098e-02 1.320109e-02 1.305170e-02 
    49.5                4.668828e-03 4.674515e-03 3.364697e-03 5.306164e-03 8.700468e-03 5.977490e-06 4.669445e-03 1.694554e-03 1.693807e-03 1.410401e-02 1.423056e-02 1.380049e-02 
    50.5                5.360902e-03 5.371287e-03 3.286791e-03 5.975113e-03 9.861714e-03 6.307126e-06 5.364958e-03 1.795641e-03 1.794831e-03 1.548331e-02 1.622768e-02 1.537703e-02 
    51.5                6.034474e-03 6.042863e-03 3.148630e-03 6.501141e-03 1.077730e-02 6.734492e-06 6.036441e-03 1.865959e-03 1.864937e-03 1.649276e-02 1.802567e-02 1.679813e-02 
    52.5                6.144601e-03 6.143243e-03 2.866531e-03 6.442834e-03 1.072387e-02 6.769079e-06 6.137461e-03 1.889820e-03 1.888663e-03 1.613753e-02 1.816909e-02 1.675581e-02 
    53.5                6.230099e-03 6.229810e-03 2.589955e-03 6.481964e-03 1.081517e-02 6.583767e-06 6.224469e-03 1.890635e-03 1.889947e-03 1.598555e-02 1.836893e-02 1.675886e-02 
    54.5                5.969290e-03 5.969476e-03 2.344353e-03 6.086224e-03 1.017037e-02 6.398890e-06 5.963205e-03 1.848563e-03 1.847474e-03 1.494896e-02 1.748343e-02 1.588936e-02 
    55.5                5.931565e-03 5.936844e-03 2.111863e-03 6.111414e-03 1.020916e-02 6.007495e-06 5.930523e-03 1.826117e-03 1.825181e-03 1.480586e-02 1.742955e-02 1.571089e-02 
    56.5                5.724655e-03 5.726451e-03 1.982801e-03 5.808653e-03 9.728044e-03 5.882174e-06 5.720593e-03 1.765098e-03 1.764241e-03 1.406716e-02 1.673412e-02 1.505744e-02 
    57.5                5.259654e-03 5.261993e-03 1.702101e-03 5.256492e-03 8.864493e-03 5.429472e-06 5.256661e-03 1.637600e-03 1.636878e-03 1.268591e-02 1.533124e-02 1.371132e-02 
    58.5                5.020998e-03 5.021284e-03 1.457352e-03 5.024681e-03 8.466972e-03 4.926082e-06 5.015939e-03 1.506365e-03 1.505613e-03 1.198152e-02 1.462177e-02 1.299561e-02 
    59.5                4.786220e-03 4.787150e-03 1.300781e-03 4.771416e-03 8.059882e-03 4.649537e-06 4.782498e-03 1.372877e-03 1.372337e-03 1.130102e-02 1.392881e-02 1.231792e-02 
    60.5                4.370900e-03 4.375911e-03 1.100717e-03 4.312270e-03 7.313749e-03 4.301430e-06 4.371611e-03 1.202448e-03 1.201778e-03 1.015521e-02 1.270053e-02 1.117664e-02 
    61.5                3.948472e-03 3.951045e-03 9.116262e-04 3.740117e-03 6.370448e-03 3.861988e-06 3.947198e-03 1.044575e-03 1.044146e-03 8.771743e-03 1.128961e-02 9.935311e-03 
    62.5                3.227368e-03 3.221910e-03 6.782832e-04 3.053824e-03 5.199127e-03 3.193746e-06 3.219281e-03 8.679566e-04 8.674333e-04 7.101965e-03 9.222990e-03 8.083060e-03 
    63.5                2.641641e-03 2.642236e-03 5.267119e-04 2.481781e-03 4.238276e-03 2.579374e-06 2.639856e-03 7.009252e-04 7.006243e-04 5.750048e-03 7.537641e-03 6.589149e-03 
    64.5                2.111742e-03 2.111292e-03 3.918693e-04 1.979209e-03 3.384461e-03 2.071672e-06 2.109338e-03 5.375787e-04 5.372761e-04 4.557093e-03 6.026572e-03 5.248973e-03 
    65.5                1.662204e-03 1.660539e-03 2.827023e-04 1.507799e-03 2.581244e-03 1.641015e-06 1.659153e-03 3.949017e-04 3.947266e-04 3.451227e-03 4.679443e-03 4.081009e-03 
    66.5                1.207241e-03 1.204936e-03 1.910614e-04 1.069380e-03 1.833953e-03 1.214739e-06 1.204209e-03 2.663921e-04 2.662343e-04 2.435099e-03 3.368459e-03 2.937642e-03 
    67.5                7.905698e-04 7.899039e-04 1.153962e-04 6.832868e-04 1.173931e-03 8.267518e-07 7.895121e-04 1.596377e-04 1.595727e-04 1.543584e-03 2.189444e-03 1.907286e-03 
    68.5                4.747917e-04 4.748290e-04 6.124123e-05 3.839096e-04 6.597075e-04 5.156612e-07 4.746397e-04 8.128872e-05 8.124802e-05 8.604600e-04 1.281804e-03 1.123910e-03 
    69.5                2.271366e-04 2.262867e-04 2.570813e-05 1.694059e-04 2.915121e-04 2.646060e-07 2.263449e-04 3.227028e-05 3.224551e-05 3.764304e-04 5.955180e-04 5.259316e-04 
    70.5                7.303954e-05 7.261019e-05 7.751468e-06 4.355202e-05 7.499720e-05 1.070096e-07 7.260615e-05 8.127896e-06 8.118465e-06 9.724574e-05 1.791373e-04 1.623704e-04 
    71.5                1.196330e-05 1.186039e-05 9.877485e-07 5.742489e-06 9.909380e-06 2.157965e-08 1.185588e-05 1.079538e-06 1.077400e-06 1.266978e-05 2.781998e-05 2.571400e-05 
    72.5                7.062026e-07 6.952980e-07 3.235552e-08 1.273985e-07 2.180193e-07 2.168968e-09 6.937018e-07 3.398670e-08 3.376138e-08 2.903635e-07 1.433201e-06 1.415431e-06 
    73.5                0.000000e+00 0.000000e+00 0.000000e+00 0.000000e+00 0.000000e+00 0.000000e+00 0.000000e+00 0.000000e+00 0.000000e+00 0.000000e+00 0.000000e+00 0.000000e+00 
    74.5                0.000000e+00 0.000000e+00 0.000000e+00 0.000000e+00 0.000000e+00 0.000000e+00 0.000000e+00 0.000000e+00 0.000000e+00 0.000000e+00 0.000000e+00 0.000000e+00 
    75.5                0.000000e+00 0.000000e+00 0.000000e+00 0.000000e+00 0.000000e+00 0.000000e+00 0.000000e+00 0.000000e+00 0.000000e+00 0.000000e+00 0.000000e+00 0.000000e+00 
    76.5                0.000000e+00 0.000000e+00 0.000000e+00 0.000000e+00 0.000000e+00 0.000000e+00 0.000000e+00 0.000000e+00 0.000000e+00 0.000000e+00 0.000000e+00 0.000000e+00 
    77.5                0.000000e+00 0.000000e+00 0.000000e+00 0.000000e+00 0.000000e+00 0.000000e+00 0.000000e+00 0.000000e+00 0.000000e+00 0.000000e+00 0.000000e+00 0.000000e+00 
    78.5                0.000000e+00 0.000000e+00 0.000000e+00 0.000000e+00 0.000000e+00 0.000000e+00 0.000000e+00 0.000000e+00 0.000000e+00 0.000000e+00 0.000000e+00 0.000000e+00 
    79.5                0.000000e+00 0.000000e+00 0.000000e+00 0.000000e+00 0.000000e+00 0.000000e+00 0.000000e+00 0.000000e+00 0.000000e+00 0.000000e+00 0.000000e+00 0.000000e+00 


