# 80 rows of flux data
# 12 columns of flux data
# 
# total cross-sectional flux  1.024965e+00 /m^2/yr
#
#                             +x ram      -x wake      +y port -y starboard    +z zenith     -z nadir        Earth          Sun     anti-Sun      rot (x)      rot (y)      rot (z) 
# average speed (km/s)         36.79        38.07        37.42        37.41        31.65        17.11        37.48        27.82        27.82        33.74        33.73        37.39 
# total flux (#/m2/yr)  2.524672e-01 2.123087e-01 2.314562e-01 2.316339e-01 6.340712e-01 5.595945e-05 2.305540e-01 1.664347e-01 1.664502e-01 8.495152e-01 8.507227e-01 7.287355e-01 
# velocity (km/s)
     0.5                0.000000e+00 0.000000e+00 0.000000e+00 0.000000e+00 0.000000e+00 0.000000e+00 0.000000e+00 0.000000e+00 0.000000e+00 0.000000e+00 0.000000e+00 0.000000e+00 
     1.5                0.000000e+00 0.000000e+00 0.000000e+00 0.000000e+00 0.000000e+00 0.000000e+00 0.000000e+00 0.000000e+00 0.000000e+00 0.000000e+00 0.000000e+00 0.000000e+00 
     2.5                3.347023e-05 1.190564e-04 8.965591e-05 8.953492e-05 1.554345e-04 5.395137e-08 8.936621e-05 8.421564e-05 8.432242e-05 2.615508e-04 2.419941e-04 2.608363e-04 
     3.5                3.688677e-04 4.719963e-04 4.480816e-04 4.474361e-04 7.494655e-04 4.207690e-07 4.455914e-04 4.412004e-04 4.410598e-04 1.285742e-03 1.249896e-03 1.363234e-03 
     4.5                9.572372e-04 8.455949e-04 9.239072e-04 9.236799e-04 1.635147e-03 1.107518e-06 9.177499e-04 9.748630e-04 9.747272e-04 2.727451e-03 2.703619e-03 2.866882e-03 
     5.5                1.610876e-03 1.260144e-03 1.434972e-03 1.436981e-03 2.747624e-03 1.758340e-06 1.425059e-03 1.606437e-03 1.606397e-03 4.401335e-03 4.413330e-03 4.510231e-03 
     6.5                2.269831e-03 1.623122e-03 1.934404e-03 1.936979e-03 4.126436e-03 2.103468e-06 1.920329e-03 2.236832e-03 2.237138e-03 6.275170e-03 6.300097e-03 6.097611e-03 
     7.5                2.826253e-03 1.981285e-03 2.381539e-03 2.383861e-03 5.613765e-03 2.409585e-06 2.362421e-03 2.812798e-03 2.812789e-03 8.148155e-03 8.194610e-03 7.518423e-03 
     8.5                3.330173e-03 2.325759e-03 2.786924e-03 2.790631e-03 7.080211e-03 2.772997e-06 2.764344e-03 3.351270e-03 3.351683e-03 9.958265e-03 1.002169e-02 8.823031e-03 
     9.5                3.748149e-03 2.570720e-03 3.131338e-03 3.136028e-03 8.502034e-03 2.877681e-06 3.106329e-03 3.822655e-03 3.822969e-03 1.163557e-02 1.168011e-02 9.885424e-03 
    10.5                4.068947e-03 2.871770e-03 3.422216e-03 3.426750e-03 9.912512e-03 2.846694e-06 3.393310e-03 4.263811e-03 4.264255e-03 1.321758e-02 1.329585e-02 1.082990e-02 
    11.5                4.427641e-03 3.103574e-03 3.728066e-03 3.732699e-03 1.156970e-02 2.905762e-06 3.696177e-03 4.721666e-03 4.721771e-03 1.506027e-02 1.510831e-02 1.177459e-02 
    12.5                4.704293e-03 3.278930e-03 3.951981e-03 3.957457e-03 1.283245e-02 3.001337e-06 3.917849e-03 5.047896e-03 5.048255e-03 1.642246e-02 1.648420e-02 1.248281e-02 
    13.5                4.870618e-03 3.308748e-03 4.030246e-03 4.036382e-03 1.393711e-02 2.912526e-06 3.995919e-03 5.178683e-03 5.179114e-03 1.750694e-02 1.757877e-02 1.275931e-02 
    14.5                4.772256e-03 3.430230e-03 4.053558e-03 4.058970e-03 1.455819e-02 2.753746e-06 4.018832e-03 5.229526e-03 5.229701e-03 1.807351e-02 1.813450e-02 1.281322e-02 
    15.5                4.922363e-03 3.493198e-03 4.166403e-03 4.171925e-03 1.574139e-02 2.539651e-06 4.131415e-03 5.340539e-03 5.341097e-03 1.923308e-02 1.928579e-02 1.315829e-02 
    16.5                4.878684e-03 3.545981e-03 4.161907e-03 4.168106e-03 1.605582e-02 2.427540e-06 4.126974e-03 5.357678e-03 5.358175e-03 1.949364e-02 1.954900e-02 1.315932e-02 
    17.5                4.897585e-03 3.558571e-03 4.187116e-03 4.193306e-03 1.652908e-02 2.371421e-06 4.152504e-03 5.326853e-03 5.327318e-03 1.992189e-02 1.996681e-02 1.322287e-02 
    18.5                4.869131e-03 3.617278e-03 4.204033e-03 4.209019e-03 1.703308e-02 2.277346e-06 4.168645e-03 5.288540e-03 5.288756e-03 2.035800e-02 2.040824e-02 1.327232e-02 
    19.5                4.825716e-03 3.601199e-03 4.201679e-03 4.207861e-03 1.716304e-02 2.134064e-06 4.168291e-03 5.174888e-03 5.175689e-03 2.042486e-02 2.043400e-02 1.322427e-02 
    20.5                4.751616e-03 3.541382e-03 4.099429e-03 4.105990e-03 1.697648e-02 1.935147e-06 4.066254e-03 4.986969e-03 4.987250e-03 2.008765e-02 2.014782e-02 1.295661e-02 
    21.5                4.600639e-03 3.586004e-03 4.067923e-03 4.073083e-03 1.710737e-02 1.666927e-06 4.035483e-03 4.841005e-03 4.841334e-03 2.013408e-02 2.016101e-02 1.282458e-02 
    22.5                4.659445e-03 3.517101e-03 4.083627e-03 4.088162e-03 1.739191e-02 1.510759e-06 4.052785e-03 4.717061e-03 4.717575e-03 2.036058e-02 2.037326e-02 1.284031e-02 
    23.5                4.443111e-03 3.372323e-03 3.862887e-03 3.869844e-03 1.647239e-02 1.401495e-06 3.833758e-03 4.417993e-03 4.418599e-03 1.925698e-02 1.930364e-02 1.221255e-02 
    24.5                4.190398e-03 3.290193e-03 3.718769e-03 3.723165e-03 1.579445e-02 1.276317e-06 3.690503e-03 4.153547e-03 4.153723e-03 1.844105e-02 1.846628e-02 1.171915e-02 
    25.5                4.095696e-03 3.205616e-03 3.619347e-03 3.624546e-03 1.544100e-02 1.166295e-06 3.591969e-03 3.927126e-03 3.927527e-03 1.798103e-02 1.801206e-02 1.142285e-02 
    26.5                3.923351e-03 3.174675e-03 3.538486e-03 3.542824e-03 1.487464e-02 1.046620e-06 3.512302e-03 3.718163e-03 3.718664e-03 1.734263e-02 1.735163e-02 1.113670e-02 
    27.5                3.857648e-03 3.045826e-03 3.439529e-03 3.443596e-03 1.429388e-02 8.530337e-07 3.414167e-03 3.509083e-03 3.509215e-03 1.665681e-02 1.667183e-02 1.082881e-02 
    28.5                3.677238e-03 2.977419e-03 3.305885e-03 3.310171e-03 1.367813e-02 6.740403e-07 3.283204e-03 3.245368e-03 3.245824e-03 1.591624e-02 1.594284e-02 1.042324e-02 
    29.5                3.537013e-03 2.763908e-03 3.137615e-03 3.140154e-03 1.295061e-02 5.893635e-07 3.115419e-03 2.941579e-03 2.942009e-03 1.505123e-02 1.506713e-02 9.877591e-03 
    30.5                3.276998e-03 2.690375e-03 2.958693e-03 2.962756e-03 1.234974e-02 5.077284e-07 2.938914e-03 2.724556e-03 2.724593e-03 1.429807e-02 1.432180e-02 9.337694e-03 
    31.5                3.168822e-03 2.680673e-03 2.918220e-03 2.921002e-03 1.197338e-02 4.166949e-07 2.899191e-03 2.559790e-03 2.560189e-03 1.387022e-02 1.388478e-02 9.180583e-03 
    32.5                3.081478e-03 2.574232e-03 2.808764e-03 2.813287e-03 1.124565e-02 3.506425e-07 2.792476e-03 2.349104e-03 2.349419e-03 1.308425e-02 1.309886e-02 8.857911e-03 
    33.5                2.991494e-03 2.631760e-03 2.797024e-03 2.799504e-03 1.086671e-02 2.996682e-07 2.781401e-03 2.170573e-03 2.170775e-03 1.270702e-02 1.272004e-02 8.810975e-03 
    34.5                3.046628e-03 2.632709e-03 2.838528e-03 2.839611e-03 1.094501e-02 2.307156e-07 2.822205e-03 2.083801e-03 2.084077e-03 1.279031e-02 1.279916e-02 8.917764e-03 
    35.5                2.930660e-03 2.540028e-03 2.721483e-03 2.726543e-03 1.007998e-02 1.736589e-07 2.708932e-03 1.946062e-03 1.946343e-03 1.188483e-02 1.189668e-02 8.575220e-03 
    36.5                2.838199e-03 2.591205e-03 2.720172e-03 2.722259e-03 9.831726e-03 1.256252e-07 2.707553e-03 1.816641e-03 1.816882e-03 1.165044e-02 1.164243e-02 8.539995e-03 
    37.5                2.957250e-03 2.667869e-03 2.787604e-03 2.791003e-03 9.935525e-03 8.617682e-08 2.774609e-03 1.759334e-03 1.759522e-03 1.180823e-02 1.184180e-02 8.801788e-03 
    38.5                2.873870e-03 2.862419e-03 2.860362e-03 2.861352e-03 9.706218e-03 5.461307e-08 2.848968e-03 1.687889e-03 1.688182e-03 1.169172e-02 1.169365e-02 8.996399e-03 
    39.5                3.097759e-03 2.758784e-03 2.947345e-03 2.949679e-03 9.627943e-03 3.528643e-08 2.938939e-03 1.637219e-03 1.637427e-03 1.171978e-02 1.169454e-02 9.228366e-03 
    40.5                3.044599e-03 2.840968e-03 2.923450e-03 2.925780e-03 9.440046e-03 2.190427e-08 2.911796e-03 1.569443e-03 1.569844e-03 1.151877e-02 1.155086e-02 9.219359e-03 
    41.5                3.080287e-03 3.135595e-03 3.103933e-03 3.106005e-03 9.474527e-03 1.119050e-08 3.094883e-03 1.550624e-03 1.550808e-03 1.177555e-02 1.177844e-02 9.758211e-03 
    42.5                3.354054e-03 3.047257e-03 3.222792e-03 3.222333e-03 9.223227e-03 2.852911e-09 3.212877e-03 1.543334e-03 1.543476e-03 1.172241e-02 1.169392e-02 1.009047e-02 
    43.5                3.257143e-03 3.219516e-03 3.189924e-03 3.193781e-03 8.787271e-03 1.434251e-10 3.181055e-03 1.495989e-03 1.495977e-03 1.133391e-02 1.139019e-02 1.009932e-02 
    44.5                3.416617e-03 3.543926e-03 3.495505e-03 3.494379e-03 9.154591e-03 5.930951e-11 3.486185e-03 1.543081e-03 1.543337e-03 1.202520e-02 1.199992e-02 1.095809e-02 
    45.5                3.761375e-03 3.525098e-03 3.616967e-03 3.618553e-03 9.188025e-03 7.067944e-11 3.608325e-03 1.546324e-03 1.546527e-03 1.220430e-02 1.224487e-02 1.140330e-02 
    46.5                3.686658e-03 3.618584e-03 3.654965e-03 3.651890e-03 8.938970e-03 6.191526e-08 3.643903e-03 1.511620e-03 1.511866e-03 1.206633e-02 1.207436e-02 1.147682e-02 
    47.5                3.828887e-03 3.861055e-03 3.816538e-03 3.819535e-03 8.867165e-03 1.417256e-07 3.810645e-03 1.533776e-03 1.534058e-03 1.227236e-02 1.231328e-02 1.203726e-02 
    48.5                3.931376e-03 4.231912e-03 4.092564e-03 4.091658e-03 8.825590e-03 2.071983e-07 4.084743e-03 1.581912e-03 1.581843e-03 1.265909e-02 1.263041e-02 1.284018e-02 
    49.5                4.348501e-03 4.639320e-03 4.441950e-03 4.439004e-03 9.113390e-03 1.123826e-07 4.432743e-03 1.640413e-03 1.640465e-03 1.338295e-02 1.346279e-02 1.403032e-02 
    50.5                4.630764e-03 5.317971e-03 4.948975e-03 4.950923e-03 9.446810e-03 3.276289e-08 4.945804e-03 1.723433e-03 1.723679e-03 1.439520e-02 1.444445e-02 1.558755e-02 
    51.5                5.290763e-03 5.863861e-03 5.630697e-03 5.630190e-03 9.746423e-03 4.230551e-08 5.628454e-03 1.807769e-03 1.808049e-03 1.569526e-02 1.561058e-02 1.760729e-02 
    52.5                5.957873e-03 5.870105e-03 5.949424e-03 5.943840e-03 9.544637e-03 8.318127e-08 5.944444e-03 1.855441e-03 1.855436e-03 1.608424e-02 1.602758e-02 1.862871e-02 
    53.5                6.068279e-03 5.951992e-03 6.027189e-03 6.026816e-03 9.107510e-03 8.847192e-08 6.027496e-03 1.871687e-03 1.871913e-03 1.593414e-02 1.590419e-02 1.890703e-02 
    54.5                6.178086e-03 5.612705e-03 5.953980e-03 5.955857e-03 8.613895e-03 5.407288e-08 5.957285e-03 1.852621e-03 1.853088e-03 1.548584e-02 1.538428e-02 1.862071e-02 
    55.5                6.105255e-03 5.657198e-03 5.821308e-03 5.823292e-03 8.213812e-03 5.912016e-08 5.823161e-03 1.825613e-03 1.825777e-03 1.500400e-02 1.509152e-02 1.837882e-02 
    56.5                5.976144e-03 5.397126e-03 5.714582e-03 5.713937e-03 7.801765e-03 4.517651e-08 5.716605e-03 1.783068e-03 1.783230e-03 1.454639e-02 1.450843e-02 1.790503e-02 
    57.5                5.749676e-03 4.929029e-03 5.327204e-03 5.331610e-03 7.076920e-03 1.940966e-08 5.332128e-03 1.693329e-03 1.693391e-03 1.344066e-02 1.345838e-02 1.676446e-02 
    58.5                5.288849e-03 4.727442e-03 4.995976e-03 4.996704e-03 6.393892e-03 2.735988e-08 4.999162e-03 1.566854e-03 1.566958e-03 1.244341e-02 1.245849e-02 1.571440e-02 
    59.5                5.001474e-03 4.511294e-03 4.767783e-03 4.766986e-03 5.890647e-03 7.248947e-08 4.770416e-03 1.439367e-03 1.439661e-03 1.172800e-02 1.171854e-02 1.495622e-02 
    60.5                4.829907e-03 4.104304e-03 4.456519e-03 4.463770e-03 5.325416e-03 1.307550e-07 4.466013e-03 1.286644e-03 1.286929e-03 1.086308e-02 1.087212e-02 1.402204e-02 
    61.5                4.376243e-03 3.580248e-03 4.033056e-03 4.033600e-03 4.554155e-03 1.157558e-07 4.037830e-03 1.126827e-03 1.126898e-03 9.665071e-03 9.575961e-03 1.258963e-02 
    62.5                4.031689e-03 2.931998e-03 3.449796e-03 3.451200e-03 3.769300e-03 9.560765e-08 3.453471e-03 9.615540e-04 9.616468e-04 8.201102e-03 8.243466e-03 1.088728e-02 
    63.5                3.292696e-03 2.392162e-03 2.821786e-03 2.825411e-03 2.972852e-03 7.458604e-08 2.827650e-03 7.909543e-04 7.910149e-04 6.640218e-03 6.676682e-03 8.899276e-03 
    64.5                2.711883e-03 1.914746e-03 2.289759e-03 2.292903e-03 2.350684e-03 6.737790e-08 2.294358e-03 6.268624e-04 6.269628e-04 5.353913e-03 5.389875e-03 7.233689e-03 
    65.5                2.155024e-03 1.463294e-03 1.808110e-03 1.808469e-03 1.770574e-03 6.067690e-08 1.810524e-03 4.732682e-04 4.733274e-04 4.178145e-03 4.178662e-03 5.683092e-03 
    66.5                1.725761e-03 1.042166e-03 1.372251e-03 1.374129e-03 1.285408e-03 4.638857e-08 1.375742e-03 3.392566e-04 3.392889e-04 3.142039e-03 3.158775e-03 4.330230e-03 
    67.5                1.265177e-03 6.689306e-04 9.486909e-04 9.510928e-04 8.434357e-04 4.395333e-08 9.520112e-04 2.208269e-04 2.208839e-04 2.150520e-03 2.179062e-03 3.011572e-03 
    68.5                8.503958e-04 3.773847e-04 5.996417e-04 6.012656e-04 4.952806e-04 3.354944e-08 6.016977e-04 1.270983e-04 1.271064e-04 1.341219e-03 1.363164e-03 1.907747e-03 
    69.5                5.184265e-04 1.683483e-04 3.278928e-04 3.288436e-04 2.489213e-04 3.117178e-08 3.290229e-04 6.192750e-05 6.193909e-05 7.242536e-04 7.489302e-04 1.054645e-03 
    70.5                2.593416e-04 4.470920e-05 1.389352e-04 1.394807e-04 9.455836e-05 3.872031e-08 1.393011e-04 2.355863e-05 2.356050e-05 3.031275e-04 3.248695e-04 4.575116e-04 
    71.5                9.401782e-05 6.579260e-06 3.834224e-05 3.851714e-05 2.351914e-05 3.833660e-08 3.819771e-05 6.037012e-06 6.036582e-06 8.314372e-05 1.045197e-04 1.393329e-04 
    72.5                1.704606e-05 2.097173e-07 5.646277e-06 5.707519e-06 2.651449e-06 1.939335e-08 5.606984e-06 8.834696e-07 8.839207e-07 1.205489e-05 1.754972e-05 2.256788e-05 
    73.5                1.514927e-06 5.874022e-13 3.286510e-07 3.420944e-07 8.616475e-08 4.174681e-09 3.224576e-07 4.260437e-08 4.254167e-08 6.897703e-07 1.519317e-06 1.731373e-06 
    74.5                0.000000e+00 0.000000e+00 0.000000e+00 0.000000e+00 0.000000e+00 0.000000e+00 0.000000e+00 0.000000e+00 0.000000e+00 0.000000e+00 0.000000e+00 0.000000e+00 
    75.5                0.000000e+00 0.000000e+00 0.000000e+00 0.000000e+00 0.000000e+00 0.000000e+00 0.000000e+00 0.000000e+00 0.000000e+00 0.000000e+00 0.000000e+00 0.000000e+00 
    76.5                0.000000e+00 0.000000e+00 0.000000e+00 0.000000e+00 0.000000e+00 0.000000e+00 0.000000e+00 0.000000e+00 0.000000e+00 0.000000e+00 0.000000e+00 0.000000e+00 
    77.5                0.000000e+00 0.000000e+00 0.000000e+00 0.000000e+00 0.000000e+00 0.000000e+00 0.000000e+00 0.000000e+00 0.000000e+00 0.000000e+00 0.000000e+00 0.000000e+00 
    78.5                0.000000e+00 0.000000e+00 0.000000e+00 0.000000e+00 0.000000e+00 0.000000e+00 0.000000e+00 0.000000e+00 0.000000e+00 0.000000e+00 0.000000e+00 0.000000e+00 
    79.5                0.000000e+00 0.000000e+00 0.000000e+00 0.000000e+00 0.000000e+00 0.000000e+00 0.000000e+00 0.000000e+00 0.000000e+00 0.000000e+00 0.000000e+00 0.000000e+00 


