# 80 rows of flux data
# 12 columns of flux data
# 
# total cross-sectional flux  1.024931e+00 /m^2/yr
#
#                             +x ram      -x wake      +y port -y starboard    +z zenith     -z nadir        Earth          Sun     anti-Sun      rot (x)      rot (y)      rot (z) 
# average speed (km/s)         37.40        37.42        38.06        36.80        31.65        17.08        37.48        27.82        27.82        33.73        33.74        37.39 
# total flux (#/m2/yr)  2.318895e-01 2.312458e-01 2.121212e-01 2.526197e-01 6.340016e-01 5.593488e-05 2.306204e-01 1.664204e-01 1.664368e-01 8.506458e-01 8.494934e-01 7.287519e-01 
# velocity (km/s)
     0.5                0.000000e+00 0.000000e+00 0.000000e+00 0.000000e+00 0.000000e+00 0.000000e+00 0.000000e+00 0.000000e+00 0.000000e+00 0.000000e+00 0.000000e+00 0.000000e+00 
     1.5                0.000000e+00 0.000000e+00 0.000000e+00 0.000000e+00 0.000000e+00 0.000000e+00 0.000000e+00 0.000000e+00 0.000000e+00 0.000000e+00 0.000000e+00 0.000000e+00 
     2.5                8.845833e-05 8.988731e-05 1.188697e-04 3.460287e-05 1.555205e-04 5.403195e-08 8.949128e-05 8.422217e-05 8.434486e-05 2.427660e-04 2.609637e-04 2.608259e-04 
     3.5                4.460509e-04 4.477347e-04 4.721407e-04 3.705201e-04 7.496066e-04 4.231109e-07 4.463510e-04 4.413061e-04 4.412591e-04 1.251371e-03 1.284809e-03 1.363405e-03 
     4.5                9.239068e-04 9.220901e-04 8.473239e-04 9.568003e-04 1.634983e-03 1.113524e-06 9.193726e-04 9.748593e-04 9.748077e-04 2.704330e-03 2.726563e-03 2.866760e-03 
     5.5                1.438283e-03 1.432963e-03 1.262425e-03 1.607678e-03 2.747077e-03 1.755854e-06 1.427156e-03 1.606026e-03 1.606066e-03 4.411952e-03 4.400841e-03 4.509014e-03 
     6.5                1.940561e-03 1.930663e-03 1.626659e-03 2.264654e-03 4.125389e-03 2.100864e-06 1.922820e-03 2.236302e-03 2.236570e-03 6.297911e-03 6.274614e-03 6.096381e-03 
     7.5                2.389996e-03 2.376082e-03 1.985447e-03 2.820242e-03 5.612377e-03 2.410611e-06 2.365395e-03 2.812227e-03 2.812242e-03 8.191927e-03 8.148159e-03 7.517517e-03 
     8.5                2.797822e-03 2.781640e-03 2.330029e-03 3.323463e-03 7.078522e-03 2.776957e-06 2.767683e-03 3.350818e-03 3.351141e-03 1.001837e-02 9.958539e-03 8.822468e-03 
     9.5                3.143333e-03 3.124859e-03 2.575324e-03 3.741234e-03 8.500040e-03 2.879608e-06 3.109482e-03 3.821864e-03 3.822150e-03 1.167664e-02 1.163470e-02 9.884248e-03 
    10.5                3.435000e-03 3.416172e-03 2.875250e-03 4.062629e-03 9.910479e-03 2.849160e-06 3.396768e-03 4.263214e-03 4.263667e-03 1.329182e-02 1.321808e-02 1.082955e-02 
    11.5                3.742202e-03 3.720734e-03 3.107116e-03 4.422050e-03 1.156741e-02 2.906529e-06 3.699766e-03 4.721088e-03 4.721219e-03 1.510518e-02 1.505992e-02 1.177470e-02 
    12.5                3.966879e-03 3.944458e-03 3.282272e-03 4.699030e-03 1.283004e-02 2.997343e-06 3.921336e-03 5.046965e-03 5.047366e-03 1.648043e-02 1.642193e-02 1.248260e-02 
    13.5                4.047802e-03 4.022192e-03 3.311344e-03 4.864842e-03 1.393445e-02 2.911126e-06 3.999271e-03 5.177709e-03 5.178164e-03 1.757424e-02 1.750664e-02 1.275951e-02 
    14.5                4.068671e-03 4.046188e-03 3.430866e-03 4.769071e-03 1.455589e-02 2.753457e-06 4.021961e-03 5.228680e-03 5.228914e-03 1.813064e-02 1.807313e-02 1.281316e-02 
    15.5                4.181650e-03 4.159062e-03 3.493761e-03 4.920484e-03 1.573891e-02 2.544776e-06 4.134470e-03 5.339973e-03 5.340583e-03 1.928260e-02 1.923255e-02 1.315925e-02 
    16.5                4.177437e-03 4.155857e-03 3.545189e-03 4.877766e-03 1.605351e-02 2.429272e-06 4.129916e-03 5.357161e-03 5.357664e-03 1.954597e-02 1.949345e-02 1.316044e-02 
    17.5                4.202135e-03 4.180673e-03 3.557600e-03 4.897431e-03 1.652675e-02 2.371786e-06 4.155410e-03 5.326288e-03 5.326791e-03 1.996408e-02 1.992132e-02 1.322405e-02 
    18.5                4.218008e-03 4.197114e-03 3.615078e-03 4.870043e-03 1.703091e-02 2.279033e-06 4.171269e-03 5.287953e-03 5.288221e-03 2.040533e-02 2.035746e-02 1.327310e-02 
    19.5                4.214841e-03 4.195399e-03 3.599482e-03 4.828369e-03 1.716091e-02 2.135971e-06 4.170776e-03 5.174403e-03 5.175232e-03 2.043258e-02 2.042336e-02 1.322532e-02 
    20.5                4.113435e-03 4.094329e-03 3.537758e-03 4.752990e-03 1.697439e-02 1.933377e-06 4.068322e-03 4.986268e-03 4.986596e-03 2.014436e-02 2.008753e-02 1.295709e-02 
    21.5                4.079573e-03 4.062630e-03 3.581686e-03 4.604891e-03 1.710560e-02 1.668188e-06 4.037332e-03 4.840524e-03 4.840875e-03 2.015923e-02 2.013324e-02 1.282524e-02 
    22.5                4.095173e-03 4.077012e-03 3.513981e-03 4.663845e-03 1.738992e-02 1.510544e-06 4.054616e-03 4.716745e-03 4.717281e-03 2.037199e-02 2.035940e-02 1.284154e-02 
    23.5                3.876343e-03 3.859307e-03 3.367608e-03 4.446636e-03 1.647054e-02 1.401482e-06 3.835439e-03 4.417620e-03 4.418259e-03 1.930123e-02 1.925696e-02 1.221365e-02 
    24.5                3.729053e-03 3.713967e-03 3.285137e-03 4.194387e-03 1.579285e-02 1.273670e-06 3.691924e-03 4.153115e-03 4.153315e-03 1.846444e-02 1.844047e-02 1.171964e-02 
    25.5                3.629972e-03 3.615949e-03 3.200348e-03 4.099846e-03 1.543943e-02 1.164278e-06 3.593354e-03 3.926862e-03 3.927286e-03 1.801027e-02 1.798076e-02 1.142378e-02 
    26.5                3.546881e-03 3.534941e-03 3.169214e-03 3.928881e-03 1.487335e-02 1.047449e-06 3.513512e-03 3.717826e-03 3.718364e-03 1.735055e-02 1.734181e-02 1.113709e-02 
    27.5                3.448944e-03 3.435117e-03 3.041147e-03 3.862368e-03 1.429251e-02 8.542476e-07 3.415046e-03 3.508708e-03 3.508847e-03 1.667053e-02 1.665608e-02 1.082926e-02 
    28.5                3.314209e-03 3.303204e-03 2.971907e-03 3.682309e-03 1.367690e-02 6.752981e-07 3.283989e-03 3.245175e-03 3.245644e-03 1.594141e-02 1.591618e-02 1.042382e-02 
    29.5                3.145856e-03 3.132610e-03 2.759484e-03 3.540945e-03 1.294924e-02 5.888938e-07 3.116170e-03 2.941404e-03 2.941846e-03 1.506603e-02 1.505071e-02 9.878350e-03 
    30.5                2.966362e-03 2.956509e-03 2.684492e-03 3.281850e-03 1.234869e-02 5.048161e-07 2.939489e-03 2.724308e-03 2.724373e-03 1.432042e-02 1.429789e-02 9.337954e-03 
    31.5                2.923451e-03 2.916055e-03 2.674804e-03 3.174754e-03 1.197254e-02 4.139717e-07 2.899615e-03 2.559604e-03 2.560007e-03 1.388378e-02 1.386991e-02 9.180872e-03 
    32.5                2.814903e-03 2.808343e-03 2.568674e-03 3.086637e-03 1.124477e-02 3.481877e-07 2.792879e-03 2.348992e-03 2.349307e-03 1.309817e-02 1.308406e-02 8.858480e-03 
    33.5                2.801533e-03 2.796297e-03 2.624951e-03 2.996980e-03 1.086608e-02 2.990880e-07 2.781721e-03 2.170446e-03 2.170665e-03 1.271894e-02 1.270723e-02 8.811065e-03 
    34.5                2.843034e-03 2.834655e-03 2.626745e-03 3.052232e-03 1.094430e-02 2.298265e-07 2.822447e-03 2.083689e-03 2.083962e-03 1.279847e-02 1.278996e-02 8.918078e-03 
    35.5                2.726757e-03 2.722194e-03 2.534119e-03 2.936145e-03 1.007930e-02 1.727309e-07 2.709121e-03 1.945983e-03 1.946263e-03 1.189601e-02 1.188464e-02 8.575655e-03 
    36.5                2.723081e-03 2.718786e-03 2.585589e-03 2.844917e-03 9.831315e-03 1.258387e-07 2.707696e-03 1.816588e-03 1.816832e-03 1.164284e-02 1.164973e-02 8.540038e-03 
    37.5                2.792460e-03 2.787588e-03 2.661237e-03 2.963891e-03 9.934992e-03 8.699256e-08 2.774696e-03 1.759301e-03 1.759492e-03 1.184074e-02 1.180879e-02 8.802149e-03 
    38.5                2.860894e-03 2.861111e-03 2.852958e-03 2.881974e-03 9.706254e-03 5.513694e-08 2.849017e-03 1.687870e-03 1.688159e-03 1.169349e-02 1.169179e-02 8.996392e-03 
    39.5                2.949663e-03 2.945930e-03 2.753690e-03 3.104163e-03 9.627341e-03 3.568977e-08 2.938983e-03 1.637206e-03 1.637417e-03 1.169504e-02 1.171866e-02 9.228715e-03 
    40.5                2.926640e-03 2.923670e-03 2.833952e-03 3.051540e-03 9.439669e-03 2.224749e-08 2.911836e-03 1.569436e-03 1.569835e-03 1.155021e-02 1.151923e-02 9.219538e-03 
    41.5                3.103520e-03 3.105950e-03 3.127109e-03 3.089029e-03 9.474644e-03 1.111165e-08 3.094896e-03 1.550609e-03 1.550791e-03 1.177860e-02 1.177541e-02 9.758222e-03 
    42.5                3.225439e-03 3.219259e-03 3.042529e-03 3.360284e-03 9.222711e-03 2.716411e-09 3.212886e-03 1.543328e-03 1.543474e-03 1.169432e-02 1.172172e-02 1.009097e-02 
    43.5                3.192978e-03 3.192924e-03 3.209984e-03 3.263095e-03 8.787193e-03 1.384204e-10 3.181062e-03 1.495986e-03 1.495973e-03 1.138827e-02 1.133528e-02 1.009940e-02 
    44.5                3.492701e-03 3.496319e-03 3.535415e-03 3.425750e-03 9.154804e-03 6.032788e-11 3.486162e-03 1.543084e-03 1.543340e-03 1.200047e-02 1.202486e-02 1.095787e-02 
    45.5                3.620164e-03 3.616531e-03 3.516789e-03 3.767738e-03 9.187559e-03 7.236392e-11 3.608316e-03 1.546321e-03 1.546524e-03 1.224338e-02 1.220518e-02 1.140353e-02 
    46.5                3.655125e-03 3.651735e-03 3.611567e-03 3.694292e-03 8.938756e-03 5.957691e-08 3.644012e-03 1.511634e-03 1.511893e-03 1.207445e-02 1.206632e-02 1.147709e-02 
    47.5                3.816627e-03 3.820716e-03 3.852446e-03 3.836433e-03 8.867216e-03 1.375705e-07 3.810842e-03 1.533789e-03 1.534077e-03 1.231215e-02 1.227354e-02 1.203760e-02 
    48.5                4.090647e-03 4.093474e-03 4.221593e-03 3.941360e-03 8.826126e-03 2.092990e-07 4.084902e-03 1.581904e-03 1.581837e-03 1.263104e-02 1.265881e-02 1.283992e-02 
    49.5                4.439934e-03 4.443455e-03 4.626915e-03 4.356262e-03 9.113968e-03 1.176547e-07 4.432808e-03 1.640389e-03 1.640440e-03 1.345982e-02 1.338533e-02 1.402989e-02 
    50.5                4.943163e-03 4.957633e-03 5.303421e-03 4.643656e-03 9.448017e-03 3.455671e-08 4.945824e-03 1.723435e-03 1.723691e-03 1.444348e-02 1.439713e-02 1.558727e-02 
    51.5                5.623078e-03 5.634703e-03 5.852055e-03 5.305884e-03 9.747477e-03 4.154214e-08 5.628545e-03 1.807773e-03 1.808066e-03 1.561340e-02 1.569332e-02 1.760727e-02 
    52.5                5.948735e-03 5.941852e-03 5.863172e-03 5.966937e-03 9.544455e-03 8.517638e-08 5.944553e-03 1.855457e-03 1.855458e-03 1.602931e-02 1.608172e-02 1.862913e-02 
    53.5                6.027168e-03 6.024999e-03 5.944984e-03 6.077267e-03 9.107315e-03 9.075013e-08 6.027592e-03 1.871673e-03 1.871911e-03 1.590568e-02 1.593234e-02 1.890750e-02 
    54.5                5.956441e-03 5.949683e-03 5.611349e-03 6.184055e-03 8.612876e-03 5.329474e-08 5.957489e-03 1.852606e-03 1.853062e-03 1.538790e-02 1.548153e-02 1.862110e-02 
    55.5                5.827270e-03 5.821296e-03 5.650855e-03 6.106401e-03 8.213040e-03 5.159964e-08 5.823311e-03 1.825567e-03 1.825739e-03 1.508737e-02 1.500671e-02 1.837884e-02 
    56.5                5.718214e-03 5.707489e-03 5.395707e-03 5.979342e-03 7.800789e-03 3.793490e-08 5.716745e-03 1.783023e-03 1.783190e-03 1.450936e-02 1.454395e-02 1.790527e-02 
    57.5                5.336074e-03 5.324516e-03 4.928197e-03 5.750762e-03 7.075525e-03 1.549025e-08 5.332156e-03 1.693293e-03 1.693361e-03 1.345775e-02 1.344104e-02 1.676500e-02 
    58.5                5.002109e-03 4.991371e-03 4.725528e-03 5.290241e-03 6.392895e-03 2.210934e-08 4.999180e-03 1.566813e-03 1.566921e-03 1.245770e-02 1.244318e-02 1.571469e-02 
    59.5                4.771497e-03 4.762437e-03 4.508684e-03 5.004028e-03 5.889780e-03 6.749633e-08 4.770545e-03 1.439356e-03 1.439650e-03 1.171805e-02 1.172708e-02 1.495657e-02 
    60.5                4.464573e-03 4.456745e-03 4.104222e-03 4.829005e-03 5.324114e-03 1.319939e-07 4.466186e-03 1.286657e-03 1.286944e-03 1.087110e-02 1.086303e-02 1.402265e-02 
    61.5                4.039679e-03 4.024722e-03 3.584166e-03 4.377621e-03 4.552748e-03 1.166139e-07 4.037964e-03 1.126812e-03 1.126878e-03 9.578756e-03 9.662040e-03 1.259009e-02 
    62.5                3.461391e-03 3.440856e-03 2.936356e-03 4.025560e-03 3.767359e-03 9.265444e-08 3.453607e-03 9.615338e-04 9.616264e-04 8.241709e-03 8.200923e-03 1.088781e-02 
    63.5                2.831659e-03 2.817093e-03 2.395423e-03 3.287789e-03 2.971272e-03 6.837921e-08 2.827736e-03 7.909237e-04 7.909888e-04 6.674524e-03 6.640651e-03 8.899588e-03 
    64.5                2.297869e-03 2.285815e-03 1.917861e-03 2.708000e-03 2.349272e-03 6.565976e-08 2.294441e-03 6.268455e-04 6.269501e-04 5.388739e-03 5.354030e-03 7.234081e-03 
    65.5                1.814745e-03 1.801636e-03 1.467390e-03 2.151938e-03 1.769351e-03 6.031451e-08 1.810583e-03 4.732560e-04 4.733119e-04 4.179026e-03 4.177176e-03 5.683454e-03 
    66.5                1.378849e-03 1.368093e-03 1.045988e-03 1.721436e-03 1.284191e-03 4.666589e-08 1.375810e-03 3.392556e-04 3.392919e-04 3.157901e-03 3.141881e-03 4.330620e-03 
    67.5                9.548262e-04 9.460691e-04 6.722382e-04 1.261109e-03 8.423614e-04 4.413542e-08 9.519916e-04 2.208213e-04 2.208793e-04 2.178002e-03 2.150777e-03 3.011795e-03 
    68.5                6.046187e-04 5.971954e-04 3.801645e-04 8.470866e-04 4.944498e-04 3.413684e-08 6.017393e-04 1.270952e-04 1.271034e-04 1.362389e-03 1.341528e-03 1.907996e-03 
    69.5                3.318559e-04 3.256481e-04 1.703427e-04 5.156342e-04 2.483010e-04 3.125164e-08 3.290693e-04 6.192647e-05 6.193926e-05 7.480951e-04 7.245881e-04 1.054831e-03 
    70.5                1.414346e-04 1.377733e-04 4.589547e-05 2.574146e-04 9.417730e-05 3.839345e-08 1.393574e-04 2.355392e-05 2.355704e-05 3.241223e-04 3.036308e-04 4.576005e-04 
    71.5                3.964660e-05 3.789967e-05 6.904856e-06 9.296871e-05 2.336475e-05 3.809640e-08 3.824388e-05 6.030540e-06 6.031365e-06 1.038111e-04 8.369629e-05 1.393181e-04 
    72.5                5.909681e-06 5.607019e-06 2.573119e-07 1.678812e-05 2.623154e-06 1.911560e-08 5.617414e-06 8.795944e-07 8.807729e-07 1.734225e-05 1.219343e-05 2.250699e-05 
    73.5                3.588830e-07 3.279320e-07 7.236755e-12 1.484479e-06 8.401697e-08 4.346837e-09 3.216856e-07 4.217757e-08 4.216331e-08 1.488790e-06 7.050236e-07 1.718216e-06 
    74.5                0.000000e+00 0.000000e+00 0.000000e+00 0.000000e+00 0.000000e+00 0.000000e+00 0.000000e+00 0.000000e+00 0.000000e+00 0.000000e+00 0.000000e+00 0.000000e+00 
    75.5                0.000000e+00 0.000000e+00 0.000000e+00 0.000000e+00 0.000000e+00 0.000000e+00 0.000000e+00 0.000000e+00 0.000000e+00 0.000000e+00 0.000000e+00 0.000000e+00 
    76.5                0.000000e+00 0.000000e+00 0.000000e+00 0.000000e+00 0.000000e+00 0.000000e+00 0.000000e+00 0.000000e+00 0.000000e+00 0.000000e+00 0.000000e+00 0.000000e+00 
    77.5                0.000000e+00 0.000000e+00 0.000000e+00 0.000000e+00 0.000000e+00 0.000000e+00 0.000000e+00 0.000000e+00 0.000000e+00 0.000000e+00 0.000000e+00 0.000000e+00 
    78.5                0.000000e+00 0.000000e+00 0.000000e+00 0.000000e+00 0.000000e+00 0.000000e+00 0.000000e+00 0.000000e+00 0.000000e+00 0.000000e+00 0.000000e+00 0.000000e+00 
    79.5                0.000000e+00 0.000000e+00 0.000000e+00 0.000000e+00 0.000000e+00 0.000000e+00 0.000000e+00 0.000000e+00 0.000000e+00 0.000000e+00 0.000000e+00 0.000000e+00 


