# 80 rows of flux data
# 12 columns of flux data
# 
# total cross-sectional flux  2.162878e+00 /m^2/yr
#
#                             +x ram      -x wake      +y port -y starboard    +z zenith     -z nadir        Earth          Sun     anti-Sun      rot (x)      rot (y)      rot (z) 
# average speed (km/s)         24.66        23.82        24.15        17.37        24.13        23.50        18.79        24.67        24.67        23.61        24.21        23.98 
# total flux (#/m2/yr)  7.200967e-01 6.141744e-01 6.570705e-01 1.016465e-01 1.138227e+00 5.811415e-04 1.895641e-02 9.513686e-01 9.377512e-01 1.449685e+00 1.952488e+00 1.675347e+00 
# velocity (km/s)
     0.5                0.000000e+00 0.000000e+00 0.000000e+00 0.000000e+00 0.000000e+00 0.000000e+00 0.000000e+00 0.000000e+00 0.000000e+00 0.000000e+00 0.000000e+00 0.000000e+00 
     1.5                0.000000e+00 0.000000e+00 0.000000e+00 0.000000e+00 0.000000e+00 0.000000e+00 0.000000e+00 0.000000e+00 0.000000e+00 0.000000e+00 0.000000e+00 0.000000e+00 
     2.5                0.000000e+00 5.264287e-06 6.613211e-07 5.926364e-07 2.406744e-06 1.557636e-09 1.008962e-07 1.985555e-06 1.625521e-07 2.930342e-06 6.006888e-06 5.487269e-06 
     3.5                3.173531e-06 1.215284e-04 4.503087e-05 1.751350e-05 9.710933e-05 4.703578e-08 3.189589e-06 5.729658e-05 2.267536e-05 1.244316e-04 1.751312e-04 1.497183e-04 
     4.5                1.229400e-04 5.519760e-04 2.922660e-04 1.055647e-04 5.619764e-04 2.913914e-07 1.866689e-05 2.954309e-04 1.737246e-04 7.492682e-04 9.752771e-04 8.501247e-04 
     5.5                5.802499e-04 1.490997e-03 1.034067e-03 3.839723e-04 1.882967e-03 9.397010e-07 6.721567e-05 9.693227e-04 7.307353e-04 2.590020e-03 3.118943e-03 2.748981e-03 
     6.5                1.935159e-03 2.791775e-03 2.363854e-03 8.600677e-04 4.192264e-03 2.259985e-06 1.443380e-04 2.192495e-03 1.868474e-03 5.829785e-03 7.037609e-03 6.261334e-03 
     7.5                3.608658e-03 4.946723e-03 4.267965e-03 1.691045e-03 7.478870e-03 4.329470e-06 2.857952e-04 3.980304e-03 3.683200e-03 1.057732e-02 1.265425e-02 1.142440e-02 
     8.5                6.084990e-03 7.352566e-03 6.868137e-03 2.548893e-03 1.196180e-02 6.676980e-06 4.209642e-04 6.394244e-03 6.263335e-03 1.681924e-02 2.003734e-02 1.796759e-02 
     9.5                9.283141e-03 9.352233e-03 9.610948e-03 3.597376e-03 1.668054e-02 9.400249e-06 5.932059e-04 9.355929e-03 9.353936e-03 2.353590e-02 2.786548e-02 2.505024e-02 
    10.5                1.254812e-02 1.137304e-02 1.211093e-02 4.870379e-03 2.089767e-02 1.257017e-05 7.960383e-04 1.281655e-02 1.277500e-02 2.985636e-02 3.537868e-02 3.216734e-02 
    11.5                1.479675e-02 1.304512e-02 1.429409e-02 5.977235e-03 2.465193e-02 1.491579e-05 9.753533e-04 1.625854e-02 1.612062e-02 3.538320e-02 4.144051e-02 3.782919e-02 
    12.5                1.697512e-02 1.429871e-02 1.577449e-02 6.807029e-03 2.741601e-02 1.693113e-05 1.122864e-03 1.931865e-02 1.913754e-02 3.931929e-02 4.632731e-02 4.238024e-02 
    13.5                1.824564e-02 1.623136e-02 1.725481e-02 7.282422e-03 3.010897e-02 1.859474e-05 1.216161e-03 2.228363e-02 2.206226e-02 4.290329e-02 5.096912e-02 4.653042e-02 
    14.5                1.988603e-02 1.790935e-02 1.895839e-02 7.262541e-03 3.315506e-02 1.947701e-05 1.204728e-03 2.542086e-02 2.514809e-02 4.649233e-02 5.599594e-02 5.057867e-02 
    15.5                2.159548e-02 1.945377e-02 2.052097e-02 6.923272e-03 3.588431e-02 2.027008e-05 1.141429e-03 2.839667e-02 2.808802e-02 4.943840e-02 6.073112e-02 5.424355e-02 
    16.5                2.342958e-02 2.084440e-02 2.207462e-02 6.574408e-03 3.845663e-02 2.122170e-05 1.084396e-03 3.120123e-02 3.085883e-02 5.224445e-02 6.530855e-02 5.787033e-02 
    17.5                2.476468e-02 2.218554e-02 2.331014e-02 6.087532e-03 4.052741e-02 2.196858e-05 1.022313e-03 3.370320e-02 3.333722e-02 5.429571e-02 6.906383e-02 6.068296e-02 
    18.5                2.597196e-02 2.315754e-02 2.443351e-02 5.421947e-03 4.237161e-02 2.227661e-05 9.197734e-04 3.590910e-02 3.551973e-02 5.593256e-02 7.224745e-02 6.289770e-02 
    19.5                2.714099e-02 2.388304e-02 2.527498e-02 4.961962e-03 4.375193e-02 2.284931e-05 8.588460e-04 3.769050e-02 3.727891e-02 5.717509e-02 7.484428e-02 6.482418e-02 
    20.5                2.774477e-02 2.454559e-02 2.579762e-02 4.459638e-03 4.464796e-02 2.293455e-05 7.855869e-04 3.892238e-02 3.848649e-02 5.772197e-02 7.655483e-02 6.594881e-02 
    21.5                2.819724e-02 2.555032e-02 2.651311e-02 3.902895e-03 4.576896e-02 2.325611e-05 7.163520e-04 4.027675e-02 3.980176e-02 5.855203e-02 7.859025e-02 6.731410e-02 
    22.5                2.908503e-02 2.617064e-02 2.729851e-02 3.562405e-03 4.714763e-02 2.350292e-05 6.665456e-04 4.167449e-02 4.116212e-02 5.980526e-02 8.087389e-02 6.897101e-02 
    23.5                2.985007e-02 2.640681e-02 2.768446e-02 3.080070e-03 4.777943e-02 2.361189e-05 6.052732e-04 4.247663e-02 4.193434e-02 6.006918e-02 8.216251e-02 6.978153e-02 
    24.5                3.001007e-02 2.653494e-02 2.776414e-02 2.683547e-03 4.791296e-02 2.349947e-05 5.519228e-04 4.272233e-02 4.215159e-02 5.977204e-02 8.249870e-02 6.983703e-02 
    25.5                3.005533e-02 2.641033e-02 2.771107e-02 2.279327e-03 4.782016e-02 2.321298e-05 4.968921e-04 4.266769e-02 4.207097e-02 5.917937e-02 8.236306e-02 6.948443e-02 
    26.5                2.991840e-02 2.574146e-02 2.728305e-02 1.954112e-03 4.710892e-02 2.267298e-05 4.493428e-04 4.203227e-02 4.142637e-02 5.790218e-02 8.116655e-02 6.829570e-02 
    27.5                2.929816e-02 2.508613e-02 2.653011e-02 1.652794e-03 4.581982e-02 2.207383e-05 4.047535e-04 4.092287e-02 4.031918e-02 5.598186e-02 7.914689e-02 6.649772e-02 
    28.5                2.835122e-02 2.423763e-02 2.569248e-02 1.409813e-03 4.440427e-02 2.113933e-05 3.649697e-04 3.952261e-02 3.892112e-02 5.395253e-02 7.660477e-02 6.421727e-02 
    29.5                2.746551e-02 2.310943e-02 2.466367e-02 1.163166e-03 4.263272e-02 2.023392e-05 3.245710e-04 3.786909e-02 3.727675e-02 5.153202e-02 7.361558e-02 6.161982e-02 
    30.5                2.620672e-02 2.185215e-02 2.340346e-02 9.630495e-04 4.047113e-02 1.916450e-05 2.893148e-04 3.583428e-02 3.526294e-02 4.868311e-02 6.992389e-02 5.845069e-02 
    31.5                2.480738e-02 2.038230e-02 2.198593e-02 7.692543e-04 3.803307e-02 1.793939e-05 2.528587e-04 3.352782e-02 3.298143e-02 4.552555e-02 6.573376e-02 5.487226e-02 
    32.5                2.320242e-02 1.868855e-02 2.037388e-02 6.140282e-04 3.525487e-02 1.655042e-05 2.204701e-04 3.089668e-02 3.038552e-02 4.201982e-02 6.093399e-02 5.080583e-02 
    33.5                2.141345e-02 1.678503e-02 1.854511e-02 4.840730e-04 3.209629e-02 1.507134e-05 1.904544e-04 2.796670e-02 2.749703e-02 3.811917e-02 5.552371e-02 4.626528e-02 
    34.5                1.933925e-02 1.488273e-02 1.659145e-02 3.788680e-04 2.872059e-02 1.347885e-05 1.631791e-04 2.486805e-02 2.444670e-02 3.400276e-02 4.971752e-02 4.140512e-02 
    35.5                1.722724e-02 1.298866e-02 1.462343e-02 2.888988e-04 2.531944e-02 1.190290e-05 1.378649e-04 2.177818e-02 2.140550e-02 2.988294e-02 4.386840e-02 3.651719e-02 
    36.5                1.509139e-02 1.115055e-02 1.269774e-02 2.086953e-04 2.198812e-02 1.029323e-05 1.131627e-04 1.875674e-02 1.843264e-02 2.586815e-02 3.809650e-02 3.168894e-02 
    37.5                1.304625e-02 9.368982e-03 1.083140e-02 1.495906e-04 1.875916e-02 8.786072e-06 9.240011e-05 1.586844e-02 1.559382e-02 2.200843e-02 3.252288e-02 2.704259e-02 
    38.5                1.104142e-02 7.614888e-03 9.016644e-03 1.028692e-04 1.561866e-02 7.296235e-06 7.374752e-05 1.308714e-02 1.286080e-02 1.827764e-02 2.707412e-02 2.249833e-02 
    39.5                9.122195e-03 5.918761e-03 7.251163e-03 6.807651e-05 1.256184e-02 5.884108e-06 5.738195e-05 1.043040e-02 1.025202e-02 1.466831e-02 2.180378e-02 1.811860e-02 
    40.5                7.229803e-03 4.374288e-03 5.573193e-03 4.297803e-05 9.655790e-03 4.547893e-06 4.302800e-05 7.946096e-03 7.812468e-03 1.125333e-02 1.679549e-02 1.396101e-02 
    41.5                5.469738e-03 3.085590e-03 4.081038e-03 2.577215e-05 7.071178e-03 3.371928e-06 3.094464e-05 5.774743e-03 5.680123e-03 8.227420e-03 1.234671e-02 1.027257e-02 
    42.5                3.929691e-03 2.059467e-03 2.848934e-03 1.463964e-05 4.936676e-03 2.363739e-06 2.115023e-05 3.991786e-03 3.928192e-03 5.735668e-03 8.633602e-03 7.184985e-03 
    43.5                2.702629e-03 1.233057e-03 1.863600e-03 7.776146e-06 3.229373e-03 1.558627e-06 1.361124e-05 2.586410e-03 2.547450e-03 3.747669e-03 5.662546e-03 4.715512e-03 
    44.5                1.715972e-03 6.411244e-04 1.095807e-03 3.859944e-06 1.898815e-03 9.446710e-07 8.169131e-06 1.516483e-03 1.496385e-03 2.201707e-03 3.364544e-03 2.810882e-03 
    45.5                9.581678e-04 2.656547e-04 5.547079e-04 1.677616e-06 9.611214e-04 5.005326e-07 4.293441e-06 7.685151e-04 7.599769e-04 1.113738e-03 1.728135e-03 1.450243e-03 
    46.5                4.474962e-04 7.787080e-05 2.242207e-04 6.326616e-07 3.884180e-04 2.263189e-07 1.930474e-06 3.168585e-04 3.146407e-04 4.499834e-04 7.236383e-04 6.137731e-04 
    47.5                1.543714e-04 1.518930e-05 6.595068e-05 1.929484e-07 1.142129e-04 7.922796e-08 6.760039e-07 9.693971e-05 9.690574e-05 1.323286e-04 2.253701e-04 1.941986e-04 
    48.5                3.728578e-05 1.358331e-06 1.328982e-05 4.031943e-08 2.300449e-05 1.919619e-08 1.616620e-07 2.070722e-05 2.085573e-05 2.665873e-05 4.908202e-05 4.315779e-05 
    49.5                5.195066e-06 1.187341e-08 1.434682e-06 5.558279e-09 2.481470e-06 2.797842e-09 2.395294e-08 2.533535e-06 2.581310e-06 2.878568e-06 6.141671e-06 5.586338e-06 
    50.5                1.499485e-07 0.000000e+00 2.749600e-08 1.693162e-10 4.748889e-08 8.437665e-11 7.943020e-10 6.471314e-08 6.648888e-08 5.524024e-08 1.609794e-07 1.538793e-07 
    51.5                0.000000e+00 0.000000e+00 0.000000e+00 0.000000e+00 0.000000e+00 0.000000e+00 0.000000e+00 0.000000e+00 0.000000e+00 0.000000e+00 0.000000e+00 0.000000e+00 
    52.5                0.000000e+00 0.000000e+00 0.000000e+00 0.000000e+00 0.000000e+00 0.000000e+00 0.000000e+00 0.000000e+00 0.000000e+00 0.000000e+00 0.000000e+00 0.000000e+00 
    53.5                0.000000e+00 0.000000e+00 0.000000e+00 0.000000e+00 0.000000e+00 0.000000e+00 0.000000e+00 0.000000e+00 0.000000e+00 0.000000e+00 0.000000e+00 0.000000e+00 
    54.5                0.000000e+00 0.000000e+00 0.000000e+00 0.000000e+00 0.000000e+00 0.000000e+00 0.000000e+00 0.000000e+00 0.000000e+00 0.000000e+00 0.000000e+00 0.000000e+00 
    55.5                0.000000e+00 0.000000e+00 0.000000e+00 0.000000e+00 0.000000e+00 0.000000e+00 0.000000e+00 0.000000e+00 0.000000e+00 0.000000e+00 0.000000e+00 0.000000e+00 
    56.5                0.000000e+00 0.000000e+00 0.000000e+00 0.000000e+00 0.000000e+00 0.000000e+00 0.000000e+00 0.000000e+00 0.000000e+00 0.000000e+00 0.000000e+00 0.000000e+00 
    57.5                0.000000e+00 0.000000e+00 0.000000e+00 0.000000e+00 0.000000e+00 0.000000e+00 0.000000e+00 0.000000e+00 0.000000e+00 0.000000e+00 0.000000e+00 0.000000e+00 
    58.5                0.000000e+00 0.000000e+00 0.000000e+00 0.000000e+00 0.000000e+00 0.000000e+00 0.000000e+00 0.000000e+00 0.000000e+00 0.000000e+00 0.000000e+00 0.000000e+00 
    59.5                0.000000e+00 0.000000e+00 0.000000e+00 0.000000e+00 0.000000e+00 0.000000e+00 0.000000e+00 0.000000e+00 0.000000e+00 0.000000e+00 0.000000e+00 0.000000e+00 
    60.5                0.000000e+00 0.000000e+00 0.000000e+00 0.000000e+00 0.000000e+00 0.000000e+00 0.000000e+00 0.000000e+00 0.000000e+00 0.000000e+00 0.000000e+00 0.000000e+00 
    61.5                0.000000e+00 0.000000e+00 0.000000e+00 0.000000e+00 0.000000e+00 0.000000e+00 0.000000e+00 0.000000e+00 0.000000e+00 0.000000e+00 0.000000e+00 0.000000e+00 
    62.5                0.000000e+00 0.000000e+00 0.000000e+00 0.000000e+00 0.000000e+00 0.000000e+00 0.000000e+00 0.000000e+00 0.000000e+00 0.000000e+00 0.000000e+00 0.000000e+00 
    63.5                0.000000e+00 0.000000e+00 0.000000e+00 0.000000e+00 0.000000e+00 0.000000e+00 0.000000e+00 0.000000e+00 0.000000e+00 0.000000e+00 0.000000e+00 0.000000e+00 
    64.5                0.000000e+00 0.000000e+00 0.000000e+00 0.000000e+00 0.000000e+00 0.000000e+00 0.000000e+00 0.000000e+00 0.000000e+00 0.000000e+00 0.000000e+00 0.000000e+00 
    65.5                0.000000e+00 0.000000e+00 0.000000e+00 0.000000e+00 0.000000e+00 0.000000e+00 0.000000e+00 0.000000e+00 0.000000e+00 0.000000e+00 0.000000e+00 0.000000e+00 
    66.5                0.000000e+00 0.000000e+00 0.000000e+00 0.000000e+00 0.000000e+00 0.000000e+00 0.000000e+00 0.000000e+00 0.000000e+00 0.000000e+00 0.000000e+00 0.000000e+00 
    67.5                0.000000e+00 0.000000e+00 0.000000e+00 0.000000e+00 0.000000e+00 0.000000e+00 0.000000e+00 0.000000e+00 0.000000e+00 0.000000e+00 0.000000e+00 0.000000e+00 
    68.5                0.000000e+00 0.000000e+00 0.000000e+00 0.000000e+00 0.000000e+00 0.000000e+00 0.000000e+00 0.000000e+00 0.000000e+00 0.000000e+00 0.000000e+00 0.000000e+00 
    69.5                0.000000e+00 0.000000e+00 0.000000e+00 0.000000e+00 0.000000e+00 0.000000e+00 0.000000e+00 0.000000e+00 0.000000e+00 0.000000e+00 0.000000e+00 0.000000e+00 
    70.5                0.000000e+00 0.000000e+00 0.000000e+00 0.000000e+00 0.000000e+00 0.000000e+00 0.000000e+00 0.000000e+00 0.000000e+00 0.000000e+00 0.000000e+00 0.000000e+00 
    71.5                0.000000e+00 0.000000e+00 0.000000e+00 0.000000e+00 0.000000e+00 0.000000e+00 0.000000e+00 0.000000e+00 0.000000e+00 0.000000e+00 0.000000e+00 0.000000e+00 
    72.5                0.000000e+00 0.000000e+00 0.000000e+00 0.000000e+00 0.000000e+00 0.000000e+00 0.000000e+00 0.000000e+00 0.000000e+00 0.000000e+00 0.000000e+00 0.000000e+00 
    73.5                0.000000e+00 0.000000e+00 0.000000e+00 0.000000e+00 0.000000e+00 0.000000e+00 0.000000e+00 0.000000e+00 0.000000e+00 0.000000e+00 0.000000e+00 0.000000e+00 
    74.5                0.000000e+00 0.000000e+00 0.000000e+00 0.000000e+00 0.000000e+00 0.000000e+00 0.000000e+00 0.000000e+00 0.000000e+00 0.000000e+00 0.000000e+00 0.000000e+00 
    75.5                0.000000e+00 0.000000e+00 0.000000e+00 0.000000e+00 0.000000e+00 0.000000e+00 0.000000e+00 0.000000e+00 0.000000e+00 0.000000e+00 0.000000e+00 0.000000e+00 
    76.5                0.000000e+00 0.000000e+00 0.000000e+00 0.000000e+00 0.000000e+00 0.000000e+00 0.000000e+00 0.000000e+00 0.000000e+00 0.000000e+00 0.000000e+00 0.000000e+00 
    77.5                0.000000e+00 0.000000e+00 0.000000e+00 0.000000e+00 0.000000e+00 0.000000e+00 0.000000e+00 0.000000e+00 0.000000e+00 0.000000e+00 0.000000e+00 0.000000e+00 
    78.5                0.000000e+00 0.000000e+00 0.000000e+00 0.000000e+00 0.000000e+00 0.000000e+00 0.000000e+00 0.000000e+00 0.000000e+00 0.000000e+00 0.000000e+00 0.000000e+00 
    79.5                0.000000e+00 0.000000e+00 0.000000e+00 0.000000e+00 0.000000e+00 0.000000e+00 0.000000e+00 0.000000e+00 0.000000e+00 0.000000e+00 0.000000e+00 0.000000e+00 


