# 80 rows of flux data
# 12 columns of flux data
# 
# total cross-sectional flux  2.285060e+00 /m^2/yr
#
#                             +x ram      -x wake      +y port -y starboard    +z zenith     -z nadir        Earth          Sun     anti-Sun      rot (x)      rot (y)      rot (z) 
# average speed (km/s)         24.50        24.49        21.77        19.48        24.67        23.57        24.49        25.02        25.02        24.05        24.58        23.94 
# total flux (#/m2/yr)  6.953244e-01 6.946713e-01 2.880456e-01 1.799037e-01 1.387684e+00 4.912944e-04 6.881089e-01 9.968314e-01 9.970662e-01 1.551809e+00 2.187882e+00 1.553375e+00 
# velocity (km/s)
     0.5                0.000000e+00 0.000000e+00 0.000000e+00 0.000000e+00 0.000000e+00 0.000000e+00 0.000000e+00 0.000000e+00 0.000000e+00 0.000000e+00 0.000000e+00 0.000000e+00 
     1.5                0.000000e+00 0.000000e+00 0.000000e+00 0.000000e+00 0.000000e+00 0.000000e+00 0.000000e+00 0.000000e+00 0.000000e+00 0.000000e+00 0.000000e+00 0.000000e+00 
     2.5                2.129634e-08 3.491824e-08 1.014729e-10 2.834807e-09 1.485940e-09 2.663535e-11 2.123685e-08 2.719730e-08 1.671713e-08 3.672995e-09 5.624993e-08 5.632568e-08 
     3.5                3.009738e-05 3.024953e-05 5.130961e-06 6.256221e-06 1.478735e-05 5.083961e-08 2.996936e-05 1.706478e-05 1.705028e-05 2.162642e-05 6.345352e-05 6.237950e-05 
     4.5                2.154842e-04 2.171695e-04 6.855041e-05 6.059769e-05 2.627745e-04 2.520242e-07 2.146450e-04 1.277715e-04 1.273741e-04 3.274034e-04 5.559220e-04 4.658551e-04 
     5.5                8.361773e-04 8.423230e-04 3.624441e-04 3.194855e-04 1.164078e-03 9.456619e-07 8.328386e-04 5.514624e-04 5.503745e-04 1.498155e-03 2.264400e-03 1.896343e-03 
     6.5                2.171455e-03 2.177326e-03 1.164087e-03 9.634645e-04 3.734661e-03 1.989037e-06 2.161919e-03 1.683737e-03 1.682815e-03 4.686920e-03 6.384497e-03 5.125580e-03 
     7.5                3.847875e-03 3.854935e-03 2.247818e-03 1.872734e-03 6.919985e-03 3.547767e-06 3.829506e-03 3.286521e-03 3.285761e-03 8.787385e-03 1.155490e-02 9.322444e-03 
     8.5                6.428190e-03 6.433153e-03 3.858631e-03 3.173852e-03 1.169640e-02 5.715202e-06 6.395844e-03 5.694787e-03 5.696859e-03 1.485873e-02 1.938802e-02 1.571126e-02 
     9.5                9.513629e-03 9.515530e-03 5.744516e-03 4.660850e-03 1.782911e-02 8.070970e-06 9.462272e-03 8.826699e-03 8.828542e-03 2.241950e-02 2.906038e-02 2.321184e-02 
    10.5                1.217635e-02 1.216829e-02 7.912980e-03 6.445892e-03 2.402796e-02 1.000561e-05 1.210459e-02 1.245730e-02 1.246022e-02 3.038333e-02 3.812158e-02 3.036953e-02 
    11.5                1.444861e-02 1.444448e-02 9.739090e-03 8.049610e-03 2.837555e-02 1.216260e-05 1.435092e-02 1.624125e-02 1.624366e-02 3.648718e-02 4.513464e-02 3.667388e-02 
    12.5                1.624837e-02 1.623843e-02 1.103505e-02 9.048043e-03 3.255278e-02 1.338167e-05 1.612621e-02 1.972336e-02 1.972854e-02 4.165237e-02 5.124082e-02 4.144524e-02 
    13.5                1.752397e-02 1.750977e-02 1.177875e-02 9.634908e-03 3.503154e-02 1.461321e-05 1.737870e-02 2.249389e-02 2.249920e-02 4.481059e-02 5.521238e-02 4.466397e-02 
    14.5                1.940709e-02 1.939381e-02 1.249742e-02 1.009662e-02 3.826402e-02 1.601504e-05 1.923409e-02 2.577223e-02 2.577740e-02 4.846298e-02 6.072741e-02 4.883034e-02 
    15.5                2.105490e-02 2.104237e-02 1.275888e-02 1.003715e-02 4.155726e-02 1.711156e-05 2.085715e-02 2.882444e-02 2.883174e-02 5.149033e-02 6.593637e-02 5.188122e-02 
    16.5                2.276113e-02 2.274175e-02 1.312281e-02 1.005348e-02 4.511385e-02 1.793647e-05 2.253646e-02 3.194928e-02 3.195660e-02 5.492611e-02 7.139398e-02 5.516764e-02 
    17.5                2.405964e-02 2.404548e-02 1.314133e-02 9.765681e-03 4.768901e-02 1.848917e-05 2.381349e-02 3.442816e-02 3.443589e-02 5.702282e-02 7.547666e-02 5.735209e-02 
    18.5                2.530589e-02 2.528879e-02 1.297587e-02 9.319391e-03 5.003683e-02 1.905554e-05 2.503818e-02 3.687553e-02 3.688307e-02 5.874689e-02 7.929441e-02 5.919198e-02 
    19.5                2.634855e-02 2.632827e-02 1.288004e-02 8.983983e-03 5.229546e-02 1.943096e-05 2.606141e-02 3.899597e-02 3.900622e-02 6.050615e-02 8.269551e-02 6.078894e-02 
    20.5                2.690013e-02 2.687879e-02 1.261914e-02 8.537750e-03 5.346830e-02 1.952300e-05 2.660191e-02 4.027253e-02 4.028199e-02 6.114435e-02 8.449298e-02 6.141594e-02 
    21.5                2.746669e-02 2.744923e-02 1.213405e-02 7.877836e-03 5.435372e-02 1.968521e-05 2.715845e-02 4.129849e-02 4.130926e-02 6.125848e-02 8.609710e-02 6.177098e-02 
    22.5                2.842323e-02 2.840306e-02 1.202020e-02 7.600611e-03 5.609355e-02 2.027887e-05 2.810122e-02 4.289379e-02 4.290334e-02 6.268714e-02 8.896602e-02 6.335260e-02 
    23.5                2.903018e-02 2.900900e-02 1.175194e-02 7.116279e-03 5.756764e-02 2.022618e-05 2.869806e-02 4.406042e-02 4.407022e-02 6.356002e-02 9.106942e-02 6.401552e-02 
    24.5                2.916104e-02 2.913728e-02 1.130103e-02 6.575983e-03 5.787846e-02 2.005716e-05 2.882530e-02 4.434073e-02 4.435088e-02 6.329420e-02 9.151961e-02 6.373380e-02 
    25.5                2.920391e-02 2.917948e-02 1.080686e-02 6.018237e-03 5.797652e-02 1.987653e-05 2.886784e-02 4.437808e-02 4.438761e-02 6.284143e-02 9.165946e-02 6.329068e-02 
    26.5                2.900790e-02 2.898211e-02 1.023156e-02 5.422578e-03 5.771979e-02 1.950501e-05 2.867406e-02 4.409528e-02 4.410573e-02 6.201247e-02 9.113672e-02 6.236625e-02 
    27.5                2.826377e-02 2.823669e-02 9.584637e-03 4.843750e-03 5.651589e-02 1.877729e-05 2.793879e-02 4.299903e-02 4.301018e-02 6.030781e-02 8.901401e-02 6.039310e-02 
    28.5                2.742543e-02 2.739936e-02 8.896009e-03 4.284198e-03 5.470274e-02 1.817847e-05 2.711154e-02 4.157245e-02 4.158019e-02 5.801451e-02 8.626521e-02 5.825405e-02 
    29.5                2.649240e-02 2.646331e-02 8.260022e-03 3.768775e-03 5.299830e-02 1.736728e-05 2.619067e-02 4.007717e-02 4.008792e-02 5.588267e-02 8.343532e-02 5.596613e-02 
    30.5                2.522017e-02 2.519257e-02 7.571959e-03 3.266387e-03 5.056647e-02 1.643805e-05 2.493506e-02 3.805399e-02 3.806275e-02 5.303567e-02 7.951883e-02 5.303757e-02 
    31.5                2.382509e-02 2.379675e-02 6.849472e-03 2.756691e-03 4.786922e-02 1.537841e-05 2.355733e-02 3.581525e-02 3.582447e-02 4.993380e-02 7.519206e-02 4.985349e-02 
    32.5                2.221840e-02 2.219232e-02 6.108363e-03 2.266773e-03 4.477079e-02 1.423277e-05 2.197098e-02 3.325594e-02 3.326409e-02 4.646667e-02 7.021854e-02 4.628634e-02 
    33.5                2.040613e-02 2.037702e-02 5.401289e-03 1.846232e-03 4.131663e-02 1.291661e-05 2.018127e-02 3.039978e-02 3.040675e-02 4.270312e-02 6.463319e-02 4.234677e-02 
    34.5                1.834964e-02 1.832321e-02 4.706538e-03 1.489019e-03 3.730940e-02 1.154618e-05 1.815031e-02 2.719638e-02 2.720302e-02 3.843514e-02 5.823822e-02 3.797246e-02 
    35.5                1.628424e-02 1.625768e-02 4.032241e-03 1.159528e-03 3.323468e-02 1.013493e-05 1.610932e-02 2.400416e-02 2.401225e-02 3.412131e-02 5.177150e-02 3.360190e-02 
    36.5                1.421699e-02 1.419287e-02 3.384113e-03 8.621006e-04 2.911169e-02 8.774261e-06 1.406672e-02 2.081889e-02 2.082305e-02 2.978547e-02 4.527248e-02 2.924695e-02 
    37.5                1.223600e-02 1.221410e-02 2.806014e-03 6.220062e-04 2.516497e-02 7.453204e-06 1.210859e-02 1.779070e-02 1.779506e-02 2.566829e-02 3.904145e-02 2.510463e-02 
    38.5                1.030045e-02 1.028077e-02 2.285975e-03 4.349774e-04 2.129515e-02 6.205486e-06 1.019481e-02 1.487748e-02 1.488153e-02 2.166399e-02 3.294897e-02 2.108563e-02 
    39.5                8.426512e-03 8.408304e-03 1.819049e-03 2.878802e-04 1.758884e-02 4.975552e-06 8.341698e-03 1.210435e-02 1.210794e-02 1.784864e-02 2.707642e-02 1.721537e-02 
    40.5                6.599209e-03 6.581966e-03 1.392294e-03 1.776177e-04 1.393518e-02 3.817670e-06 6.534030e-03 9.427910e-03 9.431081e-03 1.411074e-02 2.132401e-02 1.345861e-02 
    41.5                4.921488e-03 4.907511e-03 1.021135e-03 1.016189e-04 1.053759e-02 2.767210e-06 4.873886e-03 7.001602e-03 7.003945e-03 1.065084e-02 1.601166e-02 1.002411e-02 
    42.5                3.495966e-03 3.485046e-03 7.136523e-04 5.275748e-05 7.567475e-03 1.918067e-06 3.462833e-03 4.945686e-03 4.947111e-03 7.636894e-03 1.143584e-02 7.112196e-03 
    43.5                2.364201e-03 2.355762e-03 4.805635e-04 2.584010e-05 5.202871e-03 1.247324e-06 2.342214e-03 3.331489e-03 3.332745e-03 5.244167e-03 7.795985e-03 4.805620e-03 
    44.5                1.451705e-03 1.445787e-03 2.996567e-04 1.102511e-05 3.299447e-03 7.167197e-07 1.438541e-03 2.055007e-03 2.055652e-03 3.322097e-03 4.865855e-03 2.950093e-03 
    45.5                7.795450e-04 7.757405e-04 1.648915e-04 3.809922e-06 1.839925e-03 3.510098e-07 7.726817e-04 1.111690e-03 1.112006e-03 1.850977e-03 2.664040e-03 1.583954e-03 
    46.5                3.421924e-04 3.401253e-04 7.629382e-05 1.130307e-06 8.575867e-04 1.324359e-07 3.392977e-04 4.980764e-04 4.984345e-04 8.622193e-04 1.207060e-03 6.956935e-04 
    47.5                1.079730e-04 1.071761e-04 2.607143e-05 2.357962e-07 2.944824e-04 3.471532e-08 1.071003e-04 1.632541e-04 1.633217e-04 2.959395e-04 3.997514e-04 2.198755e-04 
    48.5                2.355742e-05 2.337048e-05 6.251878e-06 2.943267e-08 7.084953e-05 5.241050e-09 2.337865e-05 3.733733e-05 3.736511e-05 7.117468e-05 9.237111e-05 4.809499e-05 
    49.5                2.785887e-06 2.761091e-06 8.646060e-07 1.137488e-09 9.818193e-06 1.790443e-10 2.767150e-06 4.833730e-06 4.846850e-06 9.860293e-06 1.204231e-05 5.716836e-06 
    50.5                5.339830e-08 5.363380e-08 2.473507e-08 0.000000e+00 2.810706e-07 0.000000e+00 5.321999e-08 1.235472e-07 1.238915e-07 2.822274e-07 3.088917e-07 1.125176e-07 
    51.5                0.000000e+00 0.000000e+00 0.000000e+00 0.000000e+00 0.000000e+00 0.000000e+00 0.000000e+00 0.000000e+00 0.000000e+00 0.000000e+00 0.000000e+00 0.000000e+00 
    52.5                0.000000e+00 0.000000e+00 0.000000e+00 0.000000e+00 0.000000e+00 0.000000e+00 0.000000e+00 0.000000e+00 0.000000e+00 0.000000e+00 0.000000e+00 0.000000e+00 
    53.5                0.000000e+00 0.000000e+00 0.000000e+00 0.000000e+00 0.000000e+00 0.000000e+00 0.000000e+00 0.000000e+00 0.000000e+00 0.000000e+00 0.000000e+00 0.000000e+00 
    54.5                0.000000e+00 0.000000e+00 0.000000e+00 0.000000e+00 0.000000e+00 0.000000e+00 0.000000e+00 0.000000e+00 0.000000e+00 0.000000e+00 0.000000e+00 0.000000e+00 
    55.5                0.000000e+00 0.000000e+00 0.000000e+00 0.000000e+00 0.000000e+00 0.000000e+00 0.000000e+00 0.000000e+00 0.000000e+00 0.000000e+00 0.000000e+00 0.000000e+00 
    56.5                0.000000e+00 0.000000e+00 0.000000e+00 0.000000e+00 0.000000e+00 0.000000e+00 0.000000e+00 0.000000e+00 0.000000e+00 0.000000e+00 0.000000e+00 0.000000e+00 
    57.5                0.000000e+00 0.000000e+00 0.000000e+00 0.000000e+00 0.000000e+00 0.000000e+00 0.000000e+00 0.000000e+00 0.000000e+00 0.000000e+00 0.000000e+00 0.000000e+00 
    58.5                0.000000e+00 0.000000e+00 0.000000e+00 0.000000e+00 0.000000e+00 0.000000e+00 0.000000e+00 0.000000e+00 0.000000e+00 0.000000e+00 0.000000e+00 0.000000e+00 
    59.5                0.000000e+00 0.000000e+00 0.000000e+00 0.000000e+00 0.000000e+00 0.000000e+00 0.000000e+00 0.000000e+00 0.000000e+00 0.000000e+00 0.000000e+00 0.000000e+00 
    60.5                0.000000e+00 0.000000e+00 0.000000e+00 0.000000e+00 0.000000e+00 0.000000e+00 0.000000e+00 0.000000e+00 0.000000e+00 0.000000e+00 0.000000e+00 0.000000e+00 
    61.5                0.000000e+00 0.000000e+00 0.000000e+00 0.000000e+00 0.000000e+00 0.000000e+00 0.000000e+00 0.000000e+00 0.000000e+00 0.000000e+00 0.000000e+00 0.000000e+00 
    62.5                0.000000e+00 0.000000e+00 0.000000e+00 0.000000e+00 0.000000e+00 0.000000e+00 0.000000e+00 0.000000e+00 0.000000e+00 0.000000e+00 0.000000e+00 0.000000e+00 
    63.5                0.000000e+00 0.000000e+00 0.000000e+00 0.000000e+00 0.000000e+00 0.000000e+00 0.000000e+00 0.000000e+00 0.000000e+00 0.000000e+00 0.000000e+00 0.000000e+00 
    64.5                0.000000e+00 0.000000e+00 0.000000e+00 0.000000e+00 0.000000e+00 0.000000e+00 0.000000e+00 0.000000e+00 0.000000e+00 0.000000e+00 0.000000e+00 0.000000e+00 
    65.5                0.000000e+00 0.000000e+00 0.000000e+00 0.000000e+00 0.000000e+00 0.000000e+00 0.000000e+00 0.000000e+00 0.000000e+00 0.000000e+00 0.000000e+00 0.000000e+00 
    66.5                0.000000e+00 0.000000e+00 0.000000e+00 0.000000e+00 0.000000e+00 0.000000e+00 0.000000e+00 0.000000e+00 0.000000e+00 0.000000e+00 0.000000e+00 0.000000e+00 
    67.5                0.000000e+00 0.000000e+00 0.000000e+00 0.000000e+00 0.000000e+00 0.000000e+00 0.000000e+00 0.000000e+00 0.000000e+00 0.000000e+00 0.000000e+00 0.000000e+00 
    68.5                0.000000e+00 0.000000e+00 0.000000e+00 0.000000e+00 0.000000e+00 0.000000e+00 0.000000e+00 0.000000e+00 0.000000e+00 0.000000e+00 0.000000e+00 0.000000e+00 
    69.5                0.000000e+00 0.000000e+00 0.000000e+00 0.000000e+00 0.000000e+00 0.000000e+00 0.000000e+00 0.000000e+00 0.000000e+00 0.000000e+00 0.000000e+00 0.000000e+00 
    70.5                0.000000e+00 0.000000e+00 0.000000e+00 0.000000e+00 0.000000e+00 0.000000e+00 0.000000e+00 0.000000e+00 0.000000e+00 0.000000e+00 0.000000e+00 0.000000e+00 
    71.5                0.000000e+00 0.000000e+00 0.000000e+00 0.000000e+00 0.000000e+00 0.000000e+00 0.000000e+00 0.000000e+00 0.000000e+00 0.000000e+00 0.000000e+00 0.000000e+00 
    72.5                0.000000e+00 0.000000e+00 0.000000e+00 0.000000e+00 0.000000e+00 0.000000e+00 0.000000e+00 0.000000e+00 0.000000e+00 0.000000e+00 0.000000e+00 0.000000e+00 
    73.5                0.000000e+00 0.000000e+00 0.000000e+00 0.000000e+00 0.000000e+00 0.000000e+00 0.000000e+00 0.000000e+00 0.000000e+00 0.000000e+00 0.000000e+00 0.000000e+00 
    74.5                0.000000e+00 0.000000e+00 0.000000e+00 0.000000e+00 0.000000e+00 0.000000e+00 0.000000e+00 0.000000e+00 0.000000e+00 0.000000e+00 0.000000e+00 0.000000e+00 
    75.5                0.000000e+00 0.000000e+00 0.000000e+00 0.000000e+00 0.000000e+00 0.000000e+00 0.000000e+00 0.000000e+00 0.000000e+00 0.000000e+00 0.000000e+00 0.000000e+00 
    76.5                0.000000e+00 0.000000e+00 0.000000e+00 0.000000e+00 0.000000e+00 0.000000e+00 0.000000e+00 0.000000e+00 0.000000e+00 0.000000e+00 0.000000e+00 0.000000e+00 
    77.5                0.000000e+00 0.000000e+00 0.000000e+00 0.000000e+00 0.000000e+00 0.000000e+00 0.000000e+00 0.000000e+00 0.000000e+00 0.000000e+00 0.000000e+00 0.000000e+00 
    78.5                0.000000e+00 0.000000e+00 0.000000e+00 0.000000e+00 0.000000e+00 0.000000e+00 0.000000e+00 0.000000e+00 0.000000e+00 0.000000e+00 0.000000e+00 0.000000e+00 
    79.5                0.000000e+00 0.000000e+00 0.000000e+00 0.000000e+00 0.000000e+00 0.000000e+00 0.000000e+00 0.000000e+00 0.000000e+00 0.000000e+00 0.000000e+00 0.000000e+00 


