# 80 rows of flux data
# 12 columns of flux data
# 
# total cross-sectional flux  1.043451e+00 /m^2/yr
#
#                             +x ram      -x wake      +y port -y starboard    +z zenith     -z nadir        Earth          Sun     anti-Sun      rot (x)      rot (y)      rot (z) 
# average speed (km/s)         37.07        38.35        43.71        30.58        32.49        43.45        33.63        28.18        27.85        33.96        34.84        36.27 
# total flux (#/m2/yr)  2.580097e-01 2.165848e-01 1.755391e-01 3.452615e-01 5.642545e-01 2.819190e-04 1.448827e-01 1.701061e-01 1.674436e-01 8.637298e-01 8.132020e-01 7.793299e-01 
# velocity (km/s)
     0.5                0.000000e+00 0.000000e+00 0.000000e+00 0.000000e+00 0.000000e+00 0.000000e+00 0.000000e+00 0.000000e+00 0.000000e+00 0.000000e+00 0.000000e+00 0.000000e+00 
     1.5                0.000000e+00 0.000000e+00 0.000000e+00 0.000000e+00 0.000000e+00 0.000000e+00 0.000000e+00 0.000000e+00 0.000000e+00 0.000000e+00 0.000000e+00 0.000000e+00 
     2.5                3.113365e-05 1.191510e-04 8.435579e-05 8.551156e-05 1.555317e-04 6.361490e-08 4.178430e-05 8.325673e-05 8.121116e-05 2.562626e-04 2.414030e-04 2.517765e-04 
     3.5                3.596542e-04 4.746638e-04 4.614224e-04 3.910221e-04 7.688072e-04 4.514534e-07 1.947886e-04 4.494008e-04 4.263513e-04 1.283559e-03 1.262988e-03 1.326258e-03 
     4.5                9.626438e-04 8.448440e-04 9.466694e-04 8.457086e-04 1.662740e-03 1.058602e-06 4.058542e-04 9.868794e-04 9.576594e-04 2.739775e-03 2.734952e-03 2.829556e-03 
     5.5                1.615843e-03 1.254612e-03 1.406427e-03 1.428473e-03 2.736104e-03 1.744724e-06 6.588462e-04 1.615176e-03 1.587957e-03 4.417822e-03 4.408388e-03 4.479647e-03 
     6.5                2.284608e-03 1.627027e-03 1.801695e-03 2.178730e-03 3.996892e-03 2.363579e-06 9.500922e-04 2.250708e-03 2.236756e-03 6.315791e-03 6.218660e-03 6.194030e-03 
     7.5                2.849844e-03 1.991150e-03 2.084810e-03 2.997119e-03 5.306065e-03 2.819117e-06 1.247845e-03 2.828540e-03 2.826677e-03 8.209288e-03 7.979842e-03 7.784986e-03 
     8.5                3.364964e-03 2.327294e-03 2.306098e-03 3.827756e-03 6.579671e-03 3.184925e-06 1.538883e-03 3.364921e-03 3.371922e-03 1.002885e-02 9.647795e-03 9.275660e-03 
     9.5                3.780158e-03 2.584236e-03 2.466113e-03 4.630350e-03 7.789171e-03 3.453708e-06 1.803395e-03 3.842529e-03 3.846665e-03 1.171833e-02 1.113378e-02 1.055481e-02 
    10.5                4.115608e-03 2.885379e-03 2.553783e-03 5.440007e-03 8.959339e-03 3.695590e-06 2.065196e-03 4.299487e-03 4.293902e-03 1.332793e-02 1.256169e-02 1.175887e-02 
    11.5                4.482378e-03 3.110294e-03 2.625633e-03 6.390819e-03 1.033509e-02 3.802618e-06 2.332466e-03 4.762516e-03 4.747422e-03 1.516738e-02 1.412805e-02 1.302562e-02 
    12.5                4.747178e-03 3.283519e-03 2.598103e-03 7.128434e-03 1.135885e-02 3.806070e-06 2.566238e-03 5.083208e-03 5.065677e-03 1.651118e-02 1.527755e-02 1.392107e-02 
    13.5                4.908378e-03 3.318668e-03 2.535951e-03 7.767590e-03 1.224873e-02 3.693755e-06 2.675456e-03 5.215251e-03 5.196981e-03 1.759184e-02 1.617021e-02 1.454043e-02 
    14.5                4.810606e-03 3.441007e-03 2.467704e-03 8.134322e-03 1.272762e-02 3.636447e-06 2.742804e-03 5.273510e-03 5.251150e-03 1.816514e-02 1.659390e-02 1.480037e-02 
    15.5                4.965875e-03 3.501966e-03 2.378904e-03 8.825641e-03 1.366197e-02 3.511776e-06 2.905513e-03 5.383109e-03 5.361875e-03 1.932181e-02 1.752333e-02 1.544469e-02 
    16.5                4.920760e-03 3.552566e-03 2.318400e-03 9.018127e-03 1.388651e-02 3.465210e-06 2.941488e-03 5.400099e-03 5.379076e-03 1.958522e-02 1.770650e-02 1.554997e-02 
    17.5                4.937588e-03 3.562942e-03 2.223738e-03 9.306447e-03 1.424081e-02 3.327764e-06 3.016817e-03 5.365543e-03 5.344611e-03 2.000279e-02 1.801462e-02 1.572815e-02 
    18.5                4.901981e-03 3.623566e-03 2.113534e-03 9.618948e-03 1.461457e-02 3.230796e-06 3.099400e-03 5.326104e-03 5.305201e-03 2.043871e-02 1.833268e-02 1.590616e-02 
    19.5                4.860181e-03 3.607704e-03 2.035845e-03 9.718379e-03 1.467744e-02 3.232104e-06 3.158525e-03 5.215603e-03 5.194175e-03 2.052145e-02 1.831173e-02 1.585871e-02 
    20.5                4.783524e-03 3.551641e-03 1.875884e-03 9.617038e-03 1.447313e-02 2.914869e-06 3.132924e-03 5.024962e-03 5.004485e-03 2.016831e-02 1.801521e-02 1.553734e-02 
    21.5                4.632980e-03 3.599092e-03 1.780828e-03 9.707533e-03 1.454099e-02 2.770200e-06 3.162862e-03 4.885369e-03 4.866087e-03 2.022395e-02 1.798164e-02 1.545591e-02 
    22.5                4.697116e-03 3.523464e-03 1.678273e-03 9.888891e-03 1.473385e-02 2.633765e-06 3.238688e-03 4.759824e-03 4.742098e-03 2.044684e-02 1.811731e-02 1.550632e-02 
    23.5                4.476951e-03 3.381678e-03 1.542032e-03 9.378324e-03 1.393708e-02 2.467317e-06 3.091172e-03 4.456840e-03 4.441433e-03 1.933672e-02 1.716059e-02 1.469258e-02 
    24.5                4.218082e-03 3.298521e-03 1.415437e-03 9.005995e-03 1.334202e-02 2.237115e-06 3.014885e-03 4.189745e-03 4.174789e-03 1.851467e-02 1.639337e-02 1.402321e-02 
    25.5                4.124765e-03 3.214906e-03 1.339690e-03 8.805605e-03 1.301972e-02 2.199682e-06 2.958892e-03 3.963967e-03 3.949188e-03 1.805799e-02 1.597316e-02 1.365040e-02 
    26.5                3.950559e-03 3.186144e-03 1.275680e-03 8.485792e-03 1.252904e-02 2.104661e-06 2.914501e-03 3.754657e-03 3.739598e-03 1.741991e-02 1.539262e-02 1.317961e-02 
    27.5                3.885646e-03 3.058814e-03 1.173430e-03 8.169036e-03 1.201329e-02 1.969720e-06 2.878467e-03 3.548225e-03 3.534692e-03 1.673995e-02 1.478811e-02 1.268774e-02 
    28.5                3.707673e-03 2.989321e-03 1.061532e-03 7.836525e-03 1.146724e-02 1.859205e-06 2.814637e-03 3.285850e-03 3.274104e-03 1.600347e-02 1.413463e-02 1.214586e-02 
    29.5                3.565858e-03 2.772943e-03 9.474775e-04 7.441033e-03 1.083750e-02 1.640270e-06 2.708154e-03 2.976445e-03 2.966250e-03 1.512887e-02 1.334443e-02 1.146644e-02 
    30.5                3.302945e-03 2.701739e-03 8.496631e-04 7.106951e-03 1.030910e-02 1.562001e-06 2.585355e-03 2.758427e-03 2.749056e-03 1.437569e-02 1.266227e-02 1.086086e-02 
    31.5                3.191271e-03 2.690505e-03 7.625246e-04 6.908200e-03 9.972344e-03 1.402436e-06 2.593276e-03 2.590559e-03 2.582717e-03 1.394131e-02 1.226618e-02 1.053805e-02 
    32.5                3.103003e-03 2.582999e-03 7.091960e-04 6.512235e-03 9.362186e-03 1.245865e-06 2.516481e-03 2.374896e-03 2.367316e-03 1.314799e-02 1.159513e-02 1.003083e-02 
    33.5                3.009962e-03 2.642583e-03 6.885119e-04 6.307604e-03 9.041016e-03 1.187588e-06 2.521989e-03 2.195176e-03 2.187049e-03 1.277054e-02 1.128384e-02 9.828555e-03 
    34.5                3.066059e-03 2.641586e-03 6.431242e-04 6.378955e-03 9.079532e-03 1.116446e-06 2.599895e-03 2.108967e-03 2.102340e-03 1.285236e-02 1.134195e-02 9.894370e-03 
    35.5                2.950154e-03 2.551887e-03 6.356595e-04 5.905245e-03 8.355989e-03 1.143818e-06 2.503858e-03 1.972447e-03 1.966092e-03 1.195292e-02 1.058979e-02 9.359549e-03 
    36.5                2.857414e-03 2.604358e-03 6.531859e-04 5.762522e-03 8.147965e-03 1.146393e-06 2.499136e-03 1.843762e-03 1.836184e-03 1.172376e-02 1.038677e-02 9.240021e-03 
    37.5                2.979372e-03 2.686393e-03 6.812097e-04 5.845606e-03 8.222200e-03 1.303537e-06 2.574200e-03 1.785783e-03 1.777680e-03 1.189596e-02 1.059352e-02 9.487402e-03 
    38.5                2.897342e-03 2.885255e-03 7.874414e-04 5.739626e-03 8.036551e-03 1.549317e-06 2.621903e-03 1.716763e-03 1.706235e-03 1.179771e-02 1.052767e-02 9.581106e-03 
    39.5                3.128978e-03 2.777994e-03 8.656566e-04 5.722284e-03 7.973054e-03 1.803743e-06 2.698288e-03 1.669755e-03 1.658279e-03 1.184480e-02 1.057499e-02 9.737614e-03 
    40.5                3.074867e-03 2.864602e-03 8.396657e-04 5.633793e-03 7.811505e-03 1.790725e-06 2.694159e-03 1.600221e-03 1.589788e-03 1.164486e-02 1.046773e-02 9.680835e-03 
    41.5                3.107327e-03 3.171396e-03 1.018089e-03 5.691719e-03 7.870686e-03 2.213410e-06 2.822144e-03 1.584072e-03 1.570174e-03 1.193151e-02 1.076747e-02 1.013768e-02 
    42.5                3.397313e-03 3.079486e-03 1.253377e-03 5.559643e-03 7.701906e-03 2.850265e-06 2.859270e-03 1.584416e-03 1.566092e-03 1.192714e-02 1.080721e-02 1.039079e-02 
    43.5                3.307883e-03 3.273705e-03 1.414173e-03 5.313948e-03 7.359933e-03 3.893171e-06 2.790387e-03 1.544152e-03 1.522427e-03 1.161163e-02 1.064287e-02 1.041207e-02 
    44.5                3.478132e-03 3.609989e-03 1.815965e-03 5.480903e-03 7.688158e-03 5.186724e-06 2.948816e-03 1.604369e-03 1.574609e-03 1.240319e-02 1.131099e-02 1.127067e-02 
    45.5                3.850661e-03 3.608735e-03 2.055036e-03 5.499336e-03 7.709554e-03 6.581476e-06 3.019378e-03 1.613759e-03 1.580248e-03 1.268276e-02 1.164237e-02 1.176640e-02 
    46.5                3.782027e-03 3.709150e-03 2.256571e-03 5.292594e-03 7.561160e-03 6.905729e-06 2.941763e-03 1.583304e-03 1.545006e-03 1.256551e-02 1.157290e-02 1.179375e-02 
    47.5                3.926969e-03 3.964713e-03 2.598114e-03 5.154665e-03 7.614844e-03 7.071478e-06 2.886519e-03 1.614384e-03 1.568065e-03 1.275354e-02 1.194564e-02 1.227100e-02 
    48.5                4.028992e-03 4.367771e-03 3.224684e-03 4.919590e-03 7.728210e-03 7.325644e-06 2.777984e-03 1.672344e-03 1.610695e-03 1.314268e-02 1.246589e-02 1.296214e-02 
    49.5                4.480873e-03 4.800263e-03 3.782826e-03 4.923116e-03 8.076861e-03 7.833647e-06 2.811218e-03 1.740635e-03 1.667060e-03 1.388663e-02 1.346613e-02 1.409509e-02 
    50.5                4.782483e-03 5.528638e-03 4.669993e-03 4.905591e-03 8.547095e-03 9.082177e-06 2.849009e-03 1.842119e-03 1.750024e-03 1.497080e-02 1.470112e-02 1.559174e-02 
    51.5                5.478354e-03 6.097247e-03 5.901162e-03 4.811187e-03 9.177132e-03 1.042570e-05 2.838047e-03 1.945485e-03 1.828116e-03 1.633958e-02 1.624234e-02 1.748118e-02 
    52.5                6.192217e-03 6.111251e-03 6.677198e-03 4.503411e-03 9.311091e-03 1.110421e-05 2.684664e-03 2.002557e-03 1.870204e-03 1.675085e-02 1.697577e-02 1.841952e-02 
    53.5                6.319527e-03 6.206452e-03 7.092569e-03 4.144832e-03 9.148871e-03 1.141580e-05 2.495817e-03 2.023276e-03 1.884537e-03 1.660142e-02 1.707172e-02 1.864315e-02 
    54.5                6.449910e-03 5.857332e-03 7.265068e-03 3.803027e-03 8.827706e-03 1.176262e-05 2.314020e-03 2.006089e-03 1.866211e-03 1.617146e-02 1.668126e-02 1.834746e-02 
    55.5                6.383719e-03 5.906749e-03 7.229467e-03 3.548233e-03 8.523515e-03 1.151148e-05 2.166499e-03 1.975942e-03 1.838947e-03 1.566091e-02 1.645265e-02 1.809959e-02 
    56.5                6.252472e-03 5.639600e-03 7.260132e-03 3.255232e-03 8.216395e-03 1.114818e-05 2.004128e-03 1.928936e-03 1.793111e-03 1.517713e-02 1.591998e-02 1.758118e-02 
    57.5                6.022741e-03 5.151382e-03 6.910130e-03 2.840644e-03 7.566751e-03 1.022017e-05 1.746675e-03 1.830398e-03 1.702835e-03 1.399794e-02 1.485998e-02 1.642329e-02 
    58.5                5.542573e-03 4.946175e-03 6.652422e-03 2.449530e-03 6.977060e-03 9.544363e-06 1.511620e-03 1.695206e-03 1.574265e-03 1.296075e-02 1.386494e-02 1.536922e-02 
    59.5                5.248991e-03 4.720530e-03 6.495163e-03 2.145904e-03 6.538935e-03 9.102892e-06 1.333076e-03 1.559548e-03 1.442901e-03 1.221239e-02 1.312911e-02 1.459849e-02 
    60.5                5.066139e-03 4.294638e-03 6.176845e-03 1.866353e-03 6.042465e-03 8.425807e-06 1.160160e-03 1.394298e-03 1.284940e-03 1.129298e-02 1.226322e-02 1.365465e-02 
    61.5                4.593410e-03 3.743376e-03 5.741246e-03 1.470819e-03 5.362898e-03 7.265417e-06 9.147026e-04 1.222066e-03 1.121456e-03 1.002766e-02 1.092345e-02 1.220337e-02 
    62.5                4.238445e-03 3.066212e-03 4.974216e-03 1.163533e-03 4.552317e-03 6.059822e-06 7.192383e-04 1.041107e-03 9.554451e-04 8.489157e-03 9.460870e-03 1.054465e-02 
    63.5                3.465164e-03 2.499621e-03 4.133764e-03 8.494076e-04 3.673303e-03 4.768005e-06 5.251508e-04 8.548418e-04 7.846533e-04 6.851784e-03 7.703438e-03 8.589584e-03 
    64.5                2.852634e-03 2.000174e-03 3.383963e-03 6.398668e-04 2.961534e-03 3.709461e-06 3.931231e-04 6.771801e-04 6.206585e-04 5.511134e-03 6.249057e-03 6.965700e-03 
    65.5                2.268039e-03 1.525409e-03 2.704341e-03 4.510293e-04 2.310853e-03 2.795038e-06 2.773847e-04 5.114377e-04 4.669952e-04 4.291299e-03 4.883858e-03 5.453656e-03 
    66.5                1.816971e-03 1.084538e-03 2.073587e-03 3.102399e-04 1.737791e-03 2.068949e-06 1.908199e-04 3.672634e-04 3.337541e-04 3.220657e-03 3.714483e-03 4.148533e-03 
    67.5                1.332794e-03 6.939441e-04 1.446707e-03 1.930647e-04 1.190128e-03 1.406459e-06 1.188933e-04 2.392905e-04 2.164516e-04 2.198972e-03 2.578755e-03 2.880295e-03 
    68.5                8.968137e-04 3.884266e-04 9.240778e-04 1.059444e-04 7.432874e-04 8.673151e-07 6.544490e-05 1.382161e-04 1.238753e-04 1.367912e-03 1.627558e-03 1.819888e-03 
    69.5                5.488619e-04 1.714681e-04 5.097987e-04 5.092213e-05 4.026447e-04 4.795617e-07 3.175491e-05 6.766801e-05 5.994488e-05 7.377099e-04 9.017765e-04 1.007024e-03 
    70.5                2.748645e-04 4.358945e-05 2.162882e-04 1.908781e-05 1.682573e-04 2.116659e-07 1.198579e-05 2.579604e-05 2.260131e-05 3.066884e-04 3.922086e-04 4.363862e-04 
    71.5                9.966848e-05 5.714602e-06 5.837868e-05 5.323236e-06 4.543611e-05 7.629915e-08 3.412014e-06 6.549146e-06 5.716810e-06 8.258755e-05 1.228544e-04 1.338830e-04 
    72.5                1.748245e-05 1.246116e-07 8.083083e-06 6.552205e-07 6.185357e-06 1.407046e-08 4.411583e-07 9.213311e-07 8.123053e-07 1.119400e-05 1.968224e-05 2.109345e-05 
    73.5                1.356114e-06 0.000000e+00 4.070669e-07 2.134018e-08 2.970104e-07 1.434049e-09 1.728699e-08 3.947108e-08 3.412475e-08 5.365259e-07 1.413009e-06 1.462806e-06 
    74.5                0.000000e+00 0.000000e+00 0.000000e+00 0.000000e+00 0.000000e+00 0.000000e+00 0.000000e+00 0.000000e+00 0.000000e+00 0.000000e+00 0.000000e+00 0.000000e+00 
    75.5                0.000000e+00 0.000000e+00 0.000000e+00 0.000000e+00 0.000000e+00 0.000000e+00 0.000000e+00 0.000000e+00 0.000000e+00 0.000000e+00 0.000000e+00 0.000000e+00 
    76.5                0.000000e+00 0.000000e+00 0.000000e+00 0.000000e+00 0.000000e+00 0.000000e+00 0.000000e+00 0.000000e+00 0.000000e+00 0.000000e+00 0.000000e+00 0.000000e+00 
    77.5                0.000000e+00 0.000000e+00 0.000000e+00 0.000000e+00 0.000000e+00 0.000000e+00 0.000000e+00 0.000000e+00 0.000000e+00 0.000000e+00 0.000000e+00 0.000000e+00 
    78.5                0.000000e+00 0.000000e+00 0.000000e+00 0.000000e+00 0.000000e+00 0.000000e+00 0.000000e+00 0.000000e+00 0.000000e+00 0.000000e+00 0.000000e+00 0.000000e+00 
    79.5                0.000000e+00 0.000000e+00 0.000000e+00 0.000000e+00 0.000000e+00 0.000000e+00 0.000000e+00 0.000000e+00 0.000000e+00 0.000000e+00 0.000000e+00 0.000000e+00 


