# 80 rows of flux data
# 12 columns of flux data
# 
# total cross-sectional flux  1.008023e+00 /m^2/yr
#
#                             +x ram      -x wake      +y port -y starboard    +z zenith     -z nadir        Earth          Sun     anti-Sun      rot (x)      rot (y)      rot (z) 
# average speed (km/s)         37.70        37.71        27.84        41.09        34.98        35.52        37.73        28.16        28.16        33.83        36.36        34.74 
# total flux (#/m2/yr)  2.302214e-01 2.301818e-01 3.713806e-01 1.986956e-01 4.743054e-01 3.794769e-04 2.297659e-01 1.588828e-01 1.588454e-01 8.330090e-01 7.354524e-01 8.037821e-01 
# velocity (km/s)
     0.5                0.000000e+00 0.000000e+00 0.000000e+00 0.000000e+00 0.000000e+00 0.000000e+00 0.000000e+00 0.000000e+00 0.000000e+00 0.000000e+00 0.000000e+00 0.000000e+00 
     1.5                0.000000e+00 0.000000e+00 0.000000e+00 0.000000e+00 0.000000e+00 0.000000e+00 0.000000e+00 0.000000e+00 0.000000e+00 0.000000e+00 0.000000e+00 0.000000e+00 
     2.5                8.962050e-05 9.055259e-05 4.867218e-05 1.024220e-04 1.962556e-04 3.835821e-08 8.997968e-05 9.301958e-05 9.300307e-05 2.720889e-04 2.945769e-04 2.600508e-04 
     3.5                4.590458e-04 4.590764e-04 3.173408e-04 4.774751e-04 8.567963e-04 4.411874e-07 4.565649e-04 4.709739e-04 4.707750e-04 1.304754e-03 1.398925e-03 1.336617e-03 
     4.5                8.900818e-04 8.891518e-04 7.693562e-04 8.573733e-04 1.618832e-03 1.104632e-06 8.842800e-04 9.473405e-04 9.470313e-04 2.566190e-03 2.683600e-03 2.657041e-03 
     5.5                1.354918e-03 1.353535e-03 1.388291e-03 1.262391e-03 2.490018e-03 1.878424e-06 1.346044e-03 1.496602e-03 1.496182e-03 4.074261e-03 4.102883e-03 4.179117e-03 
     6.5                1.804454e-03 1.802129e-03 2.252449e-03 1.602646e-03 3.406196e-03 2.685284e-06 1.792880e-03 2.030630e-03 2.030137e-03 5.754024e-03 5.536278e-03 5.829289e-03 
     7.5                2.222678e-03 2.219386e-03 3.228902e-03 1.887444e-03 4.364392e-03 3.446905e-06 2.208048e-03 2.540814e-03 2.540076e-03 7.493579e-03 6.945154e-03 7.467648e-03 
     8.5                2.620045e-03 2.616763e-03 4.246617e-03 2.162988e-03 5.276025e-03 4.166002e-06 2.603841e-03 3.051171e-03 3.050766e-03 9.233584e-03 8.287269e-03 9.117839e-03 
     9.5                2.929115e-03 2.925219e-03 5.268290e-03 2.306495e-03 6.089745e-03 4.719125e-06 2.910745e-03 3.475720e-03 3.475022e-03 1.077542e-02 9.411704e-03 1.052040e-02 
    10.5                3.250258e-03 3.246642e-03 6.308609e-03 2.513969e-03 6.969212e-03 5.273081e-06 3.230129e-03 3.945482e-03 3.944801e-03 1.244106e-02 1.060379e-02 1.201474e-02 
    11.5                3.526055e-03 3.521033e-03 7.570007e-03 2.600818e-03 7.856039e-03 5.772338e-06 3.504266e-03 4.349814e-03 4.348834e-03 1.416258e-02 1.174148e-02 1.353898e-02 
    12.5                3.746021e-03 3.741280e-03 8.585293e-03 2.623852e-03 8.511744e-03 6.177966e-06 3.724133e-03 4.617885e-03 4.617074e-03 1.547002e-02 1.258871e-02 1.469192e-02 
    13.5                3.835226e-03 3.829458e-03 9.583755e-03 2.618299e-03 8.990974e-03 6.314252e-06 3.814383e-03 4.754353e-03 4.753413e-03 1.660763e-02 1.311429e-02 1.568645e-02 
    14.5                3.875556e-03 3.870594e-03 1.005295e-02 2.595142e-03 9.452053e-03 6.277021e-06 3.855372e-03 4.831774e-03 4.830798e-03 1.725441e-02 1.355429e-02 1.611571e-02 
    15.5                4.006707e-03 4.001719e-03 1.112054e-02 2.586655e-03 9.978473e-03 6.425078e-06 3.987207e-03 4.987856e-03 4.986936e-03 1.848370e-02 1.415982e-02 1.719090e-02 
    16.5                4.021432e-03 4.016383e-03 1.138408e-02 2.590157e-03 1.016883e-02 6.389220e-06 4.002192e-03 5.028896e-03 5.028197e-03 1.883456e-02 1.433680e-02 1.744060e-02 
    17.5                4.038323e-03 4.034373e-03 1.178805e-02 2.515999e-03 1.036303e-02 6.462525e-06 4.021267e-03 4.972277e-03 4.971531e-03 1.922352e-02 1.451572e-02 1.773024e-02 
    18.5                4.079388e-03 4.074519e-03 1.223863e-02 2.513657e-03 1.064601e-02 6.664252e-06 4.061555e-03 4.982338e-03 4.981477e-03 1.979014e-02 1.479819e-02 1.814770e-02 
    19.5                4.081272e-03 4.077575e-03 1.236609e-02 2.419434e-03 1.063625e-02 6.608029e-06 4.065432e-03 4.856199e-03 4.855372e-03 1.980939e-02 1.477396e-02 1.814694e-02 
    20.5                3.973995e-03 3.970811e-03 1.224409e-02 2.335098e-03 1.045612e-02 6.508473e-06 3.958865e-03 4.696030e-03 4.695330e-03 1.952371e-02 1.445325e-02 1.779307e-02 
    21.5                3.993569e-03 3.990214e-03 1.238627e-02 2.341376e-03 1.057660e-02 6.889866e-06 3.979116e-03 4.621509e-03 4.620822e-03 1.974531e-02 1.458664e-02 1.793619e-02 
    22.5                3.983504e-03 3.980177e-03 1.266728e-02 2.209042e-03 1.054588e-02 6.954807e-06 3.970823e-03 4.460849e-03 4.459940e-03 1.983552e-02 1.453141e-02 1.801296e-02 
    23.5                3.781119e-03 3.777929e-03 1.198272e-02 2.128889e-03 9.979766e-03 6.851413e-06 3.768793e-03 4.192112e-03 4.191914e-03 1.883588e-02 1.375927e-02 1.707667e-02 
    24.5                3.646392e-03 3.643733e-03 1.146232e-02 2.023015e-03 9.619939e-03 6.700796e-06 3.634465e-03 3.950454e-03 3.949749e-03 1.807091e-02 1.325631e-02 1.632648e-02 
    25.5                3.568070e-03 3.566282e-03 1.126372e-02 1.968425e-03 9.339083e-03 6.550091e-06 3.557473e-03 3.760240e-03 3.759814e-03 1.768774e-02 1.289895e-02 1.599116e-02 
    26.5                3.484527e-03 3.482293e-03 1.077050e-02 1.939226e-03 9.070142e-03 6.619658e-06 3.474066e-03 3.567413e-03 3.566614e-03 1.709045e-02 1.254426e-02 1.540108e-02 
    27.5                3.391670e-03 3.389210e-03 1.035060e-02 1.873475e-03 8.602795e-03 7.011220e-06 3.381450e-03 3.360277e-03 3.359835e-03 1.640782e-02 1.201338e-02 1.482777e-02 
    28.5                3.268918e-03 3.267832e-03 9.806473e-03 1.891885e-03 8.258272e-03 7.325555e-06 3.261094e-03 3.091978e-03 3.091583e-03 1.576152e-02 1.155624e-02 1.419302e-02 
    29.5                3.098557e-03 3.096027e-03 9.275218e-03 1.750670e-03 7.689026e-03 7.154651e-06 3.090299e-03 2.813265e-03 2.812983e-03 1.480698e-02 1.084420e-02 1.337691e-02 
    30.5                2.930826e-03 2.929113e-03 8.793019e-03 1.708084e-03 7.412209e-03 6.977894e-06 2.924061e-03 2.632689e-03 2.632063e-03 1.417318e-02 1.036448e-02 1.270962e-02 
    31.5                2.908935e-03 2.907477e-03 8.491533e-03 1.754117e-03 7.221809e-03 7.147875e-06 2.902846e-03 2.469925e-03 2.469688e-03 1.386657e-02 1.016498e-02 1.242540e-02 
    32.5                2.816698e-03 2.815938e-03 7.870287e-03 1.818172e-03 6.747398e-03 7.246214e-06 2.812295e-03 2.278487e-03 2.277964e-03 1.312699e-02 9.659509e-03 1.182821e-02 
    33.5                2.812270e-03 2.812667e-03 7.370488e-03 1.938371e-03 6.653403e-03 7.243087e-06 2.809128e-03 2.121452e-03 2.121116e-03 1.278557e-02 9.587117e-03 1.147360e-02 
    34.5                2.858805e-03 2.856091e-03 7.400906e-03 1.992924e-03 6.641767e-03 7.182557e-06 2.853091e-03 2.055439e-03 2.055142e-03 1.287506e-02 9.635600e-03 1.158422e-02 
    35.5                2.753357e-03 2.755106e-03 6.620888e-03 2.063549e-03 6.161568e-03 7.188128e-06 2.751803e-03 1.915752e-03 1.915350e-03 1.199496e-02 9.109146e-03 1.085615e-02 
    36.5                2.748177e-03 2.747643e-03 6.265332e-03 2.126515e-03 6.146662e-03 7.131378e-06 2.745255e-03 1.783436e-03 1.783069e-03 1.175186e-02 9.104554e-03 1.058808e-02 
    37.5                2.852397e-03 2.853389e-03 6.280118e-03 2.311942e-03 6.244329e-03 6.957663e-06 2.851569e-03 1.748522e-03 1.748085e-03 1.204700e-02 9.337384e-03 1.090711e-02 
    38.5                2.986015e-03 2.988031e-03 5.882007e-03 2.658499e-03 6.417570e-03 7.010842e-06 2.986745e-03 1.700702e-03 1.700442e-03 1.220591e-02 9.696694e-03 1.106634e-02 
    39.5                2.973567e-03 2.976110e-03 5.686779e-03 2.533939e-03 6.170548e-03 7.185866e-06 2.974029e-03 1.629350e-03 1.628855e-03 1.175112e-02 9.497303e-03 1.077261e-02 
    40.5                2.987876e-03 2.990470e-03 5.470491e-03 2.701543e-03 6.228264e-03 7.182721e-06 2.988374e-03 1.566082e-03 1.565785e-03 1.178670e-02 9.561901e-03 1.075582e-02 
    41.5                3.275209e-03 3.276534e-03 5.257280e-03 3.156437e-03 6.614689e-03 7.436775e-06 3.274721e-03 1.595360e-03 1.595163e-03 1.235891e-02 1.031982e-02 1.138618e-02 
    42.5                3.289802e-03 3.290631e-03 4.874730e-03 3.135336e-03 6.340953e-03 7.241864e-06 3.288734e-03 1.549219e-03 1.548456e-03 1.183262e-02 1.015176e-02 1.108787e-02 
    43.5                3.327256e-03 3.330203e-03 4.349463e-03 3.389799e-03 6.480928e-03 6.823792e-06 3.327155e-03 1.525916e-03 1.525397e-03 1.175604e-02 1.032529e-02 1.097710e-02 
    44.5                3.658896e-03 3.659646e-03 4.363361e-03 3.796996e-03 7.015058e-03 7.163406e-06 3.658276e-03 1.595602e-03 1.595010e-03 1.258612e-02 1.127288e-02 1.182195e-02 
    45.5                3.713841e-03 3.717808e-03 4.228243e-03 3.830263e-03 6.919649e-03 7.176804e-06 3.715710e-03 1.540925e-03 1.540294e-03 1.243589e-02 1.129982e-02 1.182365e-02 
    46.5                3.797952e-03 3.794866e-03 3.978833e-03 3.959891e-03 7.006670e-03 6.935369e-06 3.791912e-03 1.534401e-03 1.533901e-03 1.237475e-02 1.149233e-02 1.186660e-02 
    47.5                3.978707e-03 3.982964e-03 3.757514e-03 4.277285e-03 7.342269e-03 6.811357e-06 3.980487e-03 1.586926e-03 1.586235e-03 1.271256e-02 1.205421e-02 1.225365e-02 
    48.5                4.374492e-03 4.375988e-03 3.507926e-03 4.751703e-03 7.878256e-03 6.931765e-06 4.372354e-03 1.625869e-03 1.625151e-03 1.333979e-02 1.310162e-02 1.309297e-02 
    49.5                4.677609e-03 4.683923e-03 3.396444e-03 5.254570e-03 8.531952e-03 7.015090e-06 4.679831e-03 1.702746e-03 1.702174e-03 1.417938e-02 1.410674e-02 1.389145e-02 
    50.5                5.370477e-03 5.380227e-03 3.306610e-03 6.050391e-03 9.622137e-03 7.315312e-06 5.375090e-03 1.804054e-03 1.803399e-03 1.557641e-02 1.605038e-02 1.555537e-02 
    51.5                6.049431e-03 6.056989e-03 3.142601e-03 6.692896e-03 1.047359e-02 7.639140e-06 6.051817e-03 1.873961e-03 1.872973e-03 1.657831e-02 1.781196e-02 1.704367e-02 
    52.5                6.168633e-03 6.168481e-03 2.858672e-03 6.704194e-03 1.039687e-02 7.549816e-06 6.163929e-03 1.897348e-03 1.896329e-03 1.622542e-02 1.795763e-02 1.705601e-02 
    53.5                6.246351e-03 6.246906e-03 2.552778e-03 6.801693e-03 1.045800e-02 7.230771e-06 6.242847e-03 1.896966e-03 1.896270e-03 1.604846e-02 1.812273e-02 1.706329e-02 
    54.5                5.992787e-03 5.993055e-03 2.312721e-03 6.414697e-03 9.825804e-03 7.018600e-06 5.987899e-03 1.854943e-03 1.853972e-03 1.501406e-02 1.725981e-02 1.620925e-02 
    55.5                5.946107e-03 5.950986e-03 2.060518e-03 6.482069e-03 9.840085e-03 6.568736e-06 5.945862e-03 1.831707e-03 1.830804e-03 1.485173e-02 1.717477e-02 1.602407e-02 
    56.5                5.740916e-03 5.742034e-03 1.935377e-03 6.174280e-03 9.374655e-03 6.400777e-06 5.737276e-03 1.770377e-03 1.769586e-03 1.410892e-02 1.649316e-02 1.536867e-02 
    57.5                5.283880e-03 5.286635e-03 1.680350e-03 5.628815e-03 8.535091e-03 5.852381e-06 5.282264e-03 1.643240e-03 1.642454e-03 1.273955e-02 1.512244e-02 1.404381e-02 
    58.5                5.036287e-03 5.036053e-03 1.422623e-03 5.407430e-03 8.136286e-03 5.346792e-06 5.031701e-03 1.511042e-03 1.510219e-03 1.201773e-02 1.439860e-02 1.330534e-02 
    59.5                4.799621e-03 4.800903e-03 1.268976e-03 5.155610e-03 7.737790e-03 5.026682e-06 4.797170e-03 1.376933e-03 1.376455e-03 1.133117e-02 1.370942e-02 1.262359e-02 
    60.5                4.389077e-03 4.394104e-03 1.083559e-03 4.687092e-03 7.014999e-03 4.638059e-06 4.390634e-03 1.206503e-03 1.205857e-03 1.018853e-02 1.250681e-02 1.148315e-02 
    61.5                3.963356e-03 3.966670e-03 9.015358e-04 4.083776e-03 6.107160e-03 4.130819e-06 3.963549e-03 1.047949e-03 1.047551e-03 8.799918e-03 1.111832e-02 1.020932e-02 
    62.5                3.242536e-03 3.236965e-03 6.722984e-04 3.348046e-03 4.977764e-03 3.436406e-06 3.234900e-03 8.709247e-04 8.704386e-04 7.125202e-03 9.084634e-03 8.318787e-03 
    63.5                2.654145e-03 2.654460e-03 5.243151e-04 2.730481e-03 4.056055e-03 2.762012e-06 2.652517e-03 7.033052e-04 7.030267e-04 5.768324e-03 7.423422e-03 6.786332e-03 
    64.5                2.121607e-03 2.120860e-03 3.916319e-04 2.184713e-03 3.236281e-03 2.241237e-06 2.119255e-03 5.395471e-04 5.392559e-04 4.570686e-03 5.932915e-03 5.410366e-03 
    65.5                1.669945e-03 1.668669e-03 2.838745e-04 1.669412e-03 2.466913e-03 1.750317e-06 1.667562e-03 3.964117e-04 3.962298e-04 3.462009e-03 4.608768e-03 4.206850e-03 
    66.5                1.213733e-03 1.211452e-03 1.928805e-04 1.187147e-03 1.751805e-03 1.304871e-06 1.210914e-03 2.674819e-04 2.673204e-04 2.442924e-03 3.319493e-03 3.030107e-03 
    67.5                7.957575e-04 7.952195e-04 1.178087e-04 7.611620e-04 1.120838e-03 8.832201e-07 7.949358e-04 1.604315e-04 1.603762e-04 1.549363e-03 2.159675e-03 1.970356e-03 
    68.5                4.778936e-04 4.780816e-04 6.267247e-05 4.285525e-04 6.295227e-04 5.530293e-07 4.779589e-04 8.174210e-05 8.171276e-05 8.636083e-04 1.265705e-03 1.159669e-03 
    69.5                2.289218e-04 2.283229e-04 2.670196e-05 1.896302e-04 2.780188e-04 2.863728e-07 2.284100e-04 3.249350e-05 3.247424e-05 3.780473e-04 5.894609e-04 5.427753e-04 
    70.5                7.388096e-05 7.347837e-05 8.187202e-06 4.869521e-05 7.163438e-05 1.150996e-07 7.347918e-05 8.211018e-06 8.202308e-06 9.786251e-05 1.784655e-04 1.672562e-04 
    71.5                1.214925e-05 1.203974e-05 1.076482e-06 6.446676e-06 9.455510e-06 2.346965e-08 1.203545e-05 1.094250e-06 1.091905e-06 1.277145e-05 2.788236e-05 2.647778e-05 
    72.5                7.219216e-07 7.068205e-07 3.647932e-08 1.424156e-07 2.088069e-07 2.359806e-09 7.051761e-07 3.478808e-08 3.456094e-08 2.951242e-07 1.457591e-06 1.446081e-06 
    73.5                0.000000e+00 0.000000e+00 0.000000e+00 0.000000e+00 0.000000e+00 0.000000e+00 0.000000e+00 0.000000e+00 0.000000e+00 0.000000e+00 0.000000e+00 0.000000e+00 
    74.5                0.000000e+00 0.000000e+00 0.000000e+00 0.000000e+00 0.000000e+00 0.000000e+00 0.000000e+00 0.000000e+00 0.000000e+00 0.000000e+00 0.000000e+00 0.000000e+00 
    75.5                0.000000e+00 0.000000e+00 0.000000e+00 0.000000e+00 0.000000e+00 0.000000e+00 0.000000e+00 0.000000e+00 0.000000e+00 0.000000e+00 0.000000e+00 0.000000e+00 
    76.5                0.000000e+00 0.000000e+00 0.000000e+00 0.000000e+00 0.000000e+00 0.000000e+00 0.000000e+00 0.000000e+00 0.000000e+00 0.000000e+00 0.000000e+00 0.000000e+00 
    77.5                0.000000e+00 0.000000e+00 0.000000e+00 0.000000e+00 0.000000e+00 0.000000e+00 0.000000e+00 0.000000e+00 0.000000e+00 0.000000e+00 0.000000e+00 0.000000e+00 
    78.5                0.000000e+00 0.000000e+00 0.000000e+00 0.000000e+00 0.000000e+00 0.000000e+00 0.000000e+00 0.000000e+00 0.000000e+00 0.000000e+00 0.000000e+00 0.000000e+00 
    79.5                0.000000e+00 0.000000e+00 0.000000e+00 0.000000e+00 0.000000e+00 0.000000e+00 0.000000e+00 0.000000e+00 0.000000e+00 0.000000e+00 0.000000e+00 0.000000e+00 


