# 80 rows of flux data
# 12 columns of flux data
# 
# total cross-sectional flux  1.098895e+00 /m^2/yr
#
#                             +x ram      -x wake      +y port -y starboard    +z zenith     -z nadir        Earth          Sun     anti-Sun      rot (x)      rot (y)      rot (z) 
# average speed (km/s)         37.41        37.42        28.02        39.31        34.41        35.40        37.45        27.70        27.70        33.64        35.87        34.68 
# total flux (#/m2/yr)  2.468506e-01 2.466232e-01 3.634974e-01 2.426954e-01 5.401040e-01 3.809371e-04 2.464249e-01 1.818881e-01 1.819033e-01 9.136120e-01 8.128419e-01 8.585645e-01 
# velocity (km/s)
     0.5                0.000000e+00 0.000000e+00 0.000000e+00 0.000000e+00 0.000000e+00 0.000000e+00 0.000000e+00 0.000000e+00 0.000000e+00 0.000000e+00 0.000000e+00 0.000000e+00 
     1.5                0.000000e+00 0.000000e+00 0.000000e+00 0.000000e+00 0.000000e+00 0.000000e+00 0.000000e+00 0.000000e+00 0.000000e+00 0.000000e+00 0.000000e+00 0.000000e+00 
     2.5                9.042323e-05 9.115286e-05 1.033938e-04 4.889544e-05 1.138994e-04 9.182119e-08 9.003180e-05 7.531752e-05 7.550431e-05 2.106381e-04 2.314575e-04 2.620170e-04 
     3.5                4.367303e-04 4.373317e-04 4.062562e-04 3.344086e-04 6.944045e-04 4.311467e-07 4.346604e-04 3.956211e-04 3.954567e-04 1.132252e-03 1.228219e-03 1.261018e-03 
     4.5                9.584101e-04 9.576888e-04 8.276112e-04 9.389944e-04 1.764202e-03 9.609461e-07 9.535717e-04 9.703663e-04 9.705449e-04 2.787061e-03 2.883598e-03 2.880312e-03 
     5.5                1.533625e-03 1.531673e-03 1.418762e-03 1.644690e-03 3.006017e-03 1.685379e-06 1.525243e-03 1.698457e-03 1.698674e-03 4.804664e-03 4.759564e-03 4.793724e-03 
     6.5                2.118618e-03 2.115139e-03 2.213285e-03 2.333886e-03 4.392774e-03 2.518282e-06 2.106768e-03 2.468452e-03 2.469055e-03 7.076743e-03 6.774072e-03 6.877936e-03 
     7.5                2.628825e-03 2.625368e-03 3.169062e-03 2.853849e-03 5.679924e-03 3.281592e-06 2.614061e-03 3.150123e-03 3.150541e-03 9.253906e-03 8.583256e-03 8.834505e-03 
     8.5                3.062686e-03 3.057755e-03 4.093138e-03 3.308888e-03 6.885499e-03 4.078870e-06 3.045847e-03 3.746538e-03 3.747541e-03 1.128776e-02 1.022616e-02 1.060366e-02 
     9.5                3.461575e-03 3.456755e-03 5.087155e-03 3.624204e-03 7.961486e-03 4.697613e-06 3.442542e-03 4.288147e-03 4.288904e-03 1.314762e-02 1.169328e-02 1.226412e-02 
    10.5                3.749839e-03 3.743741e-03 6.067516e-03 3.847228e-03 8.900652e-03 5.355507e-06 3.729376e-03 4.730009e-03 4.731168e-03 1.481950e-02 1.289077e-02 1.366730e-02 
    11.5                4.091059e-03 4.085376e-03 7.280321e-03 4.050137e-03 1.002302e-02 5.789738e-06 4.068737e-03 5.257021e-03 5.258067e-03 1.677510e-02 1.432076e-02 1.534362e-02 
    12.5                4.313811e-03 4.306986e-03 8.247097e-03 4.182852e-03 1.083336e-02 6.275609e-06 4.290359e-03 5.647057e-03 5.647701e-03 1.826083e-02 1.529567e-02 1.655310e-02 
    13.5                4.381608e-03 4.375227e-03 9.055329e-03 4.159278e-03 1.152555e-02 6.535096e-06 4.359907e-03 5.780316e-03 5.781508e-03 1.934311e-02 1.598697e-02 1.732516e-02 
    14.5                4.389534e-03 4.383994e-03 9.697614e-03 3.997848e-03 1.163243e-02 6.431099e-06 4.367930e-03 5.809541e-03 5.810756e-03 1.977749e-02 1.607738e-02 1.774649e-02 
    15.5                4.490083e-03 4.483305e-03 1.058441e-02 3.943075e-03 1.231719e-02 6.699993e-06 4.469436e-03 5.890331e-03 5.891560e-03 2.089445e-02 1.678454e-02 1.856824e-02 
    16.5                4.461702e-03 4.455591e-03 1.087472e-02 3.826797e-03 1.235745e-02 6.715346e-06 4.441469e-03 5.878158e-03 5.879146e-03 2.105212e-02 1.678207e-02 1.867309e-02 
    17.5                4.488561e-03 4.481376e-03 1.129325e-02 3.780636e-03 1.256072e-02 6.719325e-06 4.469045e-03 5.864674e-03 5.865942e-03 2.149546e-02 1.698029e-02 1.901618e-02 
    18.5                4.481703e-03 4.475941e-03 1.173775e-02 3.673023e-03 1.269342e-02 6.838604e-06 4.462946e-03 5.781855e-03 5.782788e-03 2.184231e-02 1.706504e-02 1.927378e-02 
    19.5                4.482181e-03 4.475817e-03 1.190503e-02 3.578299e-03 1.264485e-02 6.796123e-06 4.463685e-03 5.682305e-03 5.683294e-03 2.187880e-02 1.700793e-02 1.930328e-02 
    20.5                4.379277e-03 4.373797e-03 1.180853e-02 3.486582e-03 1.243196e-02 6.743058e-06 4.362350e-03 5.465756e-03 5.466969e-03 2.159595e-02 1.666245e-02 1.897449e-02 
    21.5                4.311382e-03 4.306597e-03 1.199527e-02 3.342039e-03 1.223679e-02 7.116625e-06 4.295993e-03 5.268671e-03 5.269551e-03 2.149085e-02 1.640929e-02 1.890632e-02 
    22.5                4.355796e-03 4.349542e-03 1.223516e-02 3.348877e-03 1.243193e-02 7.172003e-06 4.341933e-03 5.180957e-03 5.181799e-03 2.184100e-02 1.661053e-02 1.914774e-02 
    23.5                4.107048e-03 4.101111e-03 1.156970e-02 3.185562e-03 1.174267e-02 6.970656e-06 4.094360e-03 4.840015e-03 4.840952e-03 2.069527e-02 1.567889e-02 1.808792e-02 
    24.5                3.949744e-03 3.945326e-03 1.117672e-02 2.991433e-03 1.109924e-02 6.851680e-06 3.937330e-03 4.547782e-03 4.548554e-03 1.977151e-02 1.489812e-02 1.734926e-02 
    25.5                3.825349e-03 3.819964e-03 1.090541e-02 2.867947e-03 1.080877e-02 6.960432e-06 3.813932e-03 4.274757e-03 4.275463e-03 1.924626e-02 1.446581e-02 1.682019e-02 
    26.5                3.748844e-03 3.744850e-03 1.056177e-02 2.753355e-03 1.029754e-02 6.882299e-06 3.737735e-03 4.049103e-03 4.049987e-03 1.854035e-02 1.392017e-02 1.630308e-02 
    27.5                3.652993e-03 3.648634e-03 1.008812e-02 2.746920e-03 9.933695e-03 7.152077e-06 3.643010e-03 3.848147e-03 3.848344e-03 1.793328e-02 1.347333e-02 1.572964e-02 
    28.5                3.518856e-03 3.514628e-03 9.623544e-03 2.704462e-03 9.412118e-03 7.328327e-06 3.509973e-03 3.592541e-03 3.593368e-03 1.718873e-02 1.285104e-02 1.509915e-02 
    29.5                3.349814e-03 3.345559e-03 9.055154e-03 2.651919e-03 8.968399e-03 7.164037e-06 3.342586e-03 3.252306e-03 3.252679e-03 1.637285e-02 1.223437e-02 1.433575e-02 
    30.5                3.151293e-03 3.148047e-03 8.716162e-03 2.420408e-03 8.379959e-03 6.718589e-06 3.145422e-03 2.989712e-03 2.990089e-03 1.547593e-02 1.146607e-02 1.357723e-02 
    31.5                3.096404e-03 3.093581e-03 8.412314e-03 2.350186e-03 8.028123e-03 6.916955e-06 3.090765e-03 2.825715e-03 2.826071e-03 1.494825e-02 1.108756e-02 1.314898e-02 
    32.5                2.981880e-03 2.976472e-03 7.744967e-03 2.369300e-03 7.588464e-03 7.281764e-06 2.977237e-03 2.589159e-03 2.589490e-03 1.414760e-02 1.058014e-02 1.242808e-02 
    33.5                2.969713e-03 2.967646e-03 7.400000e-03 2.438878e-03 7.247950e-03 7.279535e-06 2.966000e-03 2.382632e-03 2.382832e-03 1.372845e-02 1.028294e-02 1.216444e-02 
    34.5                3.013899e-03 3.012301e-03 7.350413e-03 2.475170e-03 7.323550e-03 7.173592e-06 3.010809e-03 2.272368e-03 2.272412e-03 1.378079e-02 1.040959e-02 1.218136e-02 
    35.5                2.892082e-03 2.886741e-03 6.562383e-03 2.507864e-03 6.810846e-03 7.044542e-06 2.889291e-03 2.133369e-03 2.133407e-03 1.284078e-02 9.835867e-03 1.137846e-02 
    36.5                2.900373e-03 2.897900e-03 6.372691e-03 2.550511e-03 6.553606e-03 7.025298e-06 2.897885e-03 2.003244e-03 2.003421e-03 1.257295e-02 9.639549e-03 1.127176e-02 
    37.5                2.936384e-03 2.931966e-03 6.214379e-03 2.662130e-03 6.724252e-03 7.068936e-06 2.935610e-03 1.919865e-03 1.919857e-03 1.266478e-02 9.839630e-03 1.127040e-02 
    38.5                2.962533e-03 2.961679e-03 5.858642e-03 2.664562e-03 6.437529e-03 7.091837e-06 2.961154e-03 1.819861e-03 1.819839e-03 1.219554e-02 9.677301e-03 1.101824e-02 
    39.5                3.160127e-03 3.156909e-03 5.715011e-03 2.995771e-03 6.736948e-03 7.086472e-06 3.160163e-03 1.785942e-03 1.785893e-03 1.264691e-02 1.020695e-02 1.146508e-02 
    40.5                3.094671e-03 3.094682e-03 5.496579e-03 2.988312e-03 6.565537e-03 7.140702e-06 3.094272e-03 1.708544e-03 1.708570e-03 1.234670e-02 9.984702e-03 1.118462e-02 
    41.5                3.191803e-03 3.189994e-03 5.232934e-03 3.099814e-03 6.521507e-03 7.291530e-06 3.191336e-03 1.638123e-03 1.637916e-03 1.222339e-02 1.012630e-02 1.119376e-02 
    42.5                3.430007e-03 3.428729e-03 4.838967e-03 3.512921e-03 6.848878e-03 7.234091e-06 3.429371e-03 1.666191e-03 1.666068e-03 1.254366e-02 1.075743e-02 1.158767e-02 
    43.5                3.318427e-03 3.316215e-03 4.393281e-03 3.487687e-03 6.545533e-03 6.803644e-06 3.318647e-03 1.587241e-03 1.586928e-03 1.193737e-02 1.036339e-02 1.107596e-02 
    44.5                3.622265e-03 3.622941e-03 4.413819e-03 3.675225e-03 6.802689e-03 7.080504e-06 3.620201e-03 1.612285e-03 1.612032e-03 1.234011e-02 1.104853e-02 1.170417e-02 
    45.5                3.823570e-03 3.820178e-03 4.203391e-03 4.114560e-03 7.315490e-03 7.130581e-06 3.823929e-03 1.669831e-03 1.669808e-03 1.298101e-02 1.176747e-02 1.220722e-02 
    46.5                3.810496e-03 3.813887e-03 3.993183e-03 4.066641e-03 7.129294e-03 6.958323e-06 3.811516e-03 1.598320e-03 1.597909e-03 1.263591e-02 1.161604e-02 1.199775e-02 
    47.5                3.954659e-03 3.949917e-03 3.762691e-03 4.271418e-03 7.297904e-03 6.802884e-06 3.953647e-03 1.587302e-03 1.587070e-03 1.273610e-02 1.197076e-02 1.222447e-02 
    48.5                4.132180e-03 4.132303e-03 3.532693e-03 4.416687e-03 7.370240e-03 6.976266e-06 4.131178e-03 1.641770e-03 1.641390e-03 1.270532e-02 1.234660e-02 1.246230e-02 
    49.5                4.546218e-03 4.549090e-03 3.415388e-03 4.916976e-03 8.035910e-03 7.011824e-06 4.546637e-03 1.681565e-03 1.680987e-03 1.353880e-02 1.350919e-02 1.343123e-02 
    50.5                4.911497e-03 4.912312e-03 3.312193e-03 5.262516e-03 8.477245e-03 7.298462e-06 4.910624e-03 1.748458e-03 1.747989e-03 1.409482e-02 1.446187e-02 1.421809e-02 
    51.5                5.648962e-03 5.650190e-03 3.143195e-03 6.035981e-03 9.520163e-03 7.664927e-06 5.646888e-03 1.846925e-03 1.846680e-03 1.539451e-02 1.646039e-02 1.591206e-02 
    52.5                6.178156e-03 6.179543e-03 2.847262e-03 6.824255e-03 1.054032e-02 7.540607e-06 6.178264e-03 1.915933e-03 1.914949e-03 1.651967e-02 1.808269e-02 1.718249e-02 
    53.5                6.256338e-03 6.254424e-03 2.559019e-03 6.956515e-03 1.065029e-02 7.222131e-06 6.256753e-03 1.945994e-03 1.945781e-03 1.638927e-02 1.829876e-02 1.722102e-02 
    54.5                6.367672e-03 6.361881e-03 2.308944e-03 7.092548e-03 1.076914e-02 6.959174e-06 6.369165e-03 1.948313e-03 1.948322e-03 1.633537e-02 1.855658e-02 1.734105e-02 
    55.5                6.120940e-03 6.117033e-03 2.064303e-03 7.011884e-03 1.057992e-02 6.528754e-06 6.120938e-03 1.912949e-03 1.912205e-03 1.586839e-02 1.801881e-02 1.671167e-02 
    56.5                6.110444e-03 6.106925e-03 1.937762e-03 6.858391e-03 1.033953e-02 6.363015e-06 6.110109e-03 1.886173e-03 1.885916e-03 1.541235e-02 1.780569e-02 1.649144e-02 
    57.5                5.761244e-03 5.755636e-03 1.674929e-03 6.606263e-03 9.899001e-03 5.813098e-06 5.761977e-03 1.827360e-03 1.826956e-03 1.462208e-02 1.690659e-02 1.556802e-02 
    58.5                5.316086e-03 5.315967e-03 1.425688e-03 6.075495e-03 9.072839e-03 5.328979e-06 5.317657e-03 1.699515e-03 1.699040e-03 1.329228e-02 1.556480e-02 1.427933e-02 
    59.5                5.074197e-03 5.071154e-03 1.271862e-03 5.742347e-03 8.558866e-03 4.983507e-06 5.074033e-03 1.569770e-03 1.569449e-03 1.245991e-02 1.476941e-02 1.352241e-02 
    60.5                4.843624e-03 4.836059e-03 1.081081e-03 5.547429e-03 8.223665e-03 4.589583e-06 4.844707e-03 1.426144e-03 1.426102e-03 1.186240e-02 1.413196e-02 1.288022e-02 
    61.5                4.387184e-03 4.386149e-03 8.988015e-04 5.019724e-03 7.427387e-03 4.120164e-06 4.387676e-03 1.256639e-03 1.256346e-03 1.060792e-02 1.279668e-02 1.162032e-02 
    62.5                3.901359e-03 3.895984e-03 6.691365e-04 4.636884e-03 6.805973e-03 3.398428e-06 3.902859e-03 1.095254e-03 1.094923e-03 9.571286e-03 1.151507e-02 1.037257e-02 
    63.5                3.188477e-03 3.180689e-03 5.197308e-04 3.784535e-03 5.553018e-03 2.732245e-06 3.189821e-03 9.133759e-04 9.133484e-04 7.752188e-03 9.399429e-03 8.446597e-03 
    64.5                2.616244e-03 2.614155e-03 3.894862e-04 3.119226e-03 4.562510e-03 2.215535e-06 2.617613e-03 7.411165e-04 7.409153e-04 6.337164e-03 7.722189e-03 6.925057e-03 
    65.5                2.071004e-03 2.069305e-03 2.811537e-04 2.478580e-03 3.617125e-03 1.734330e-06 2.072354e-03 5.700954e-04 5.700123e-04 4.989670e-03 6.117619e-03 5.472116e-03 
    66.5                1.626067e-03 1.621790e-03 1.905431e-04 1.987197e-03 2.890070e-03 1.275541e-06 1.627378e-03 4.249718e-04 4.248653e-04 3.941947e-03 4.834298e-03 4.302295e-03 
    67.5                1.167750e-03 1.163219e-03 1.154751e-04 1.457999e-03 2.112812e-03 8.650827e-07 1.168931e-03 2.897919e-04 2.897983e-04 2.852215e-03 3.497246e-03 3.097130e-03 
    68.5                7.620088e-04 7.598220e-04 6.129471e-05 9.802125e-04 1.415547e-03 5.369624e-07 7.630355e-04 1.770681e-04 1.769963e-04 1.886677e-03 2.310419e-03 2.032963e-03 
    69.5                4.473255e-04 4.457130e-04 2.583817e-05 5.987582e-04 8.613556e-04 2.735763e-07 4.483221e-04 9.323909e-05 9.322554e-05 1.130731e-03 1.376365e-03 1.201846e-03 
    70.5                2.108148e-04 2.102006e-04 7.757003e-06 2.995770e-04 4.297872e-04 1.083759e-07 2.113948e-04 3.921241e-05 3.919312e-05 5.543115e-04 6.659849e-04 5.752588e-04 
    71.5                6.396134e-05 6.364177e-05 9.735605e-07 1.078186e-04 1.543291e-04 2.148708e-08 6.429243e-05 1.078494e-05 1.078277e-05 1.947782e-04 2.197290e-04 1.848918e-04 
    72.5                9.634397e-06 9.563501e-06 2.937132e-08 1.876873e-05 2.685255e-05 1.939149e-09 9.722152e-06 1.610314e-06 1.611613e-06 3.329966e-05 3.597314e-05 2.956824e-05 
    73.5                5.012448e-07 4.926709e-07 0.000000e+00 1.427565e-06 2.042267e-06 0.000000e+00 5.097714e-07 6.729376e-08 6.735735e-08 2.500200e-06 2.377191e-06 1.851373e-06 
    74.5                0.000000e+00 0.000000e+00 0.000000e+00 0.000000e+00 0.000000e+00 0.000000e+00 0.000000e+00 0.000000e+00 0.000000e+00 0.000000e+00 0.000000e+00 0.000000e+00 
    75.5                0.000000e+00 0.000000e+00 0.000000e+00 0.000000e+00 0.000000e+00 0.000000e+00 0.000000e+00 0.000000e+00 0.000000e+00 0.000000e+00 0.000000e+00 0.000000e+00 
    76.5                0.000000e+00 0.000000e+00 0.000000e+00 0.000000e+00 0.000000e+00 0.000000e+00 0.000000e+00 0.000000e+00 0.000000e+00 0.000000e+00 0.000000e+00 0.000000e+00 
    77.5                0.000000e+00 0.000000e+00 0.000000e+00 0.000000e+00 0.000000e+00 0.000000e+00 0.000000e+00 0.000000e+00 0.000000e+00 0.000000e+00 0.000000e+00 0.000000e+00 
    78.5                0.000000e+00 0.000000e+00 0.000000e+00 0.000000e+00 0.000000e+00 0.000000e+00 0.000000e+00 0.000000e+00 0.000000e+00 0.000000e+00 0.000000e+00 0.000000e+00 
    79.5                0.000000e+00 0.000000e+00 0.000000e+00 0.000000e+00 0.000000e+00 0.000000e+00 0.000000e+00 0.000000e+00 0.000000e+00 0.000000e+00 0.000000e+00 0.000000e+00 


