# 80 rows of flux data
# 12 columns of flux data
# 
# total cross-sectional flux  1.050572e+00 /m^2/yr
#
#                             +x ram      -x wake      +y port -y starboard    +z zenith     -z nadir        Earth          Sun     anti-Sun      rot (x)      rot (y)      rot (z) 
# average speed (km/s)         38.26        36.98        41.67        28.27        34.06        37.63        39.29        27.70        28.19        33.82        35.77        35.08 
# total flux (#/m2/yr)  2.180512e-01 2.595990e-01 2.034059e-01 3.667373e-01 5.198765e-01 3.524823e-04 3.831761e-01 1.674978e-01 1.725292e-01 8.695288e-01 7.836231e-01 8.182017e-01 
# velocity (km/s)
     0.5                0.000000e+00 0.000000e+00 0.000000e+00 0.000000e+00 0.000000e+00 0.000000e+00 0.000000e+00 0.000000e+00 0.000000e+00 0.000000e+00 0.000000e+00 0.000000e+00 
     1.5                0.000000e+00 0.000000e+00 0.000000e+00 0.000000e+00 0.000000e+00 0.000000e+00 0.000000e+00 0.000000e+00 0.000000e+00 0.000000e+00 0.000000e+00 0.000000e+00 
     2.5                1.188333e-04 2.920181e-05 7.915873e-05 8.102324e-05 1.553143e-04 6.704332e-08 1.407596e-04 7.636157e-05 8.292265e-05 2.493468e-04 2.400619e-04 2.421313e-04 
     3.5                4.754884e-04 3.481963e-04 4.378450e-04 3.618507e-04 7.864517e-04 4.120436e-07 7.546580e-04 4.127206e-04 4.445803e-04 1.258951e-03 1.269821e-03 1.276130e-03 
     4.5                8.481326e-04 9.574787e-04 9.413518e-04 8.034482e-04 1.691856e-03 1.063475e-06 1.599989e-03 9.436114e-04 9.853752e-04 2.730346e-03 2.759662e-03 2.788826e-03 
     5.5                1.263379e-03 1.620141e-03 1.444707e-03 1.415264e-03 2.735808e-03 1.835161e-06 2.480276e-03 1.582781e-03 1.625649e-03 4.445570e-03 4.425813e-03 4.502058e-03 
     6.5                1.641818e-03 2.299982e-03 1.899172e-03 2.241136e-03 3.903378e-03 2.579277e-06 3.319786e-03 2.238921e-03 2.268585e-03 6.378036e-03 6.178702e-03 6.334006e-03 
     7.5                2.009169e-03 2.874160e-03 2.246409e-03 3.197121e-03 5.060846e-03 3.296083e-06 4.028437e-03 2.839589e-03 2.856581e-03 8.311441e-03 7.828961e-03 8.094547e-03 
     8.5                2.351145e-03 3.394956e-03 2.537386e-03 4.163338e-03 6.163903e-03 3.934742e-06 4.644830e-03 3.395684e-03 3.398793e-03 1.015929e-02 9.372960e-03 9.754821e-03 
     9.5                2.609042e-03 3.812841e-03 2.732371e-03 5.127855e-03 7.188296e-03 4.310557e-06 5.133941e-03 3.870237e-03 3.875444e-03 1.184941e-02 1.070801e-02 1.119747e-02 
    10.5                2.913895e-03 4.148788e-03 2.875220e-03 6.118692e-03 8.149934e-03 4.787883e-06 5.532813e-03 4.317809e-03 4.336945e-03 1.347766e-02 1.196912e-02 1.259589e-02 
    11.5                3.140936e-03 4.520568e-03 2.997318e-03 7.304762e-03 9.267271e-03 5.115231e-06 5.922067e-03 4.772056e-03 4.806509e-03 1.532912e-02 1.332326e-02 1.410677e-02 
    12.5                3.314313e-03 4.788181e-03 3.019504e-03 8.248931e-03 1.006619e-02 5.370485e-06 6.151756e-03 5.095125e-03 5.138109e-03 1.669457e-02 1.429062e-02 1.521152e-02 
    13.5                3.349143e-03 4.947379e-03 2.945621e-03 9.132960e-03 1.073568e-02 5.325971e-06 6.175584e-03 5.225846e-03 5.269732e-03 1.776754e-02 1.498647e-02 1.603161e-02 
    14.5                3.470196e-03 4.848303e-03 2.884775e-03 9.634975e-03 1.108173e-02 5.329706e-06 6.154773e-03 5.276685e-03 5.326906e-03 1.834274e-02 1.528599e-02 1.641993e-02 
    15.5                3.534055e-03 5.002786e-03 2.820349e-03 1.056349e-02 1.178079e-02 5.373462e-06 6.219245e-03 5.391851e-03 5.442246e-03 1.950959e-02 1.601295e-02 1.728925e-02 
    16.5                3.583046e-03 4.957275e-03 2.773913e-03 1.081062e-02 1.192876e-02 5.357536e-06 6.176380e-03 5.406582e-03 5.456847e-03 1.976478e-02 1.612994e-02 1.745115e-02 
    17.5                3.594684e-03 4.974841e-03 2.695890e-03 1.121224e-02 1.216866e-02 5.375419e-06 6.138790e-03 5.376875e-03 5.426361e-03 2.019281e-02 1.634566e-02 1.773685e-02 
    18.5                3.655979e-03 4.937265e-03 2.594071e-03 1.163706e-02 1.241887e-02 5.209714e-06 6.080269e-03 5.334451e-03 5.384086e-03 2.061801e-02 1.655755e-02 1.801293e-02 
    19.5                3.640073e-03 4.896855e-03 2.550850e-03 1.174183e-02 1.243913e-02 5.283694e-06 6.046196e-03 5.222286e-03 5.275669e-03 2.070189e-02 1.650720e-02 1.799487e-02 
    20.5                3.584569e-03 4.823394e-03 2.389928e-03 1.169574e-02 1.220481e-02 5.238007e-06 5.822314e-03 5.038568e-03 5.087799e-03 2.037245e-02 1.620320e-02 1.770454e-02 
    21.5                3.632847e-03 4.670232e-03 2.313507e-03 1.181914e-02 1.221813e-02 5.163869e-06 5.738268e-03 4.897826e-03 4.946239e-03 2.042722e-02 1.612930e-02 1.765601e-02 
    22.5                3.557610e-03 4.737460e-03 2.236639e-03 1.206947e-02 1.233194e-02 5.182439e-06 5.697857e-03 4.774699e-03 4.823351e-03 2.066346e-02 1.620668e-02 1.778157e-02 
    23.5                3.413362e-03 4.513893e-03 2.075922e-03 1.144720e-02 1.164421e-02 4.887318e-06 5.357302e-03 4.469501e-03 4.514248e-03 1.953515e-02 1.534750e-02 1.683775e-02 
    24.5                3.330958e-03 4.254837e-03 1.947708e-03 1.099035e-02 1.112506e-02 4.650909e-06 5.119272e-03 4.204414e-03 4.246790e-03 1.871066e-02 1.465388e-02 1.608545e-02 
    25.5                3.243888e-03 4.160436e-03 1.847532e-03 1.077864e-02 1.083419e-02 4.561758e-06 4.945500e-03 3.975766e-03 4.017144e-03 1.824912e-02 1.426112e-02 1.567284e-02 
    26.5                3.216159e-03 3.985353e-03 1.788943e-03 1.038025e-02 1.041934e-02 4.614756e-06 4.820279e-03 3.766655e-03 3.808525e-03 1.762370e-02 1.375801e-02 1.512674e-02 
    27.5                3.090585e-03 3.920506e-03 1.705375e-03 9.970974e-03 9.970797e-03 4.596768e-06 4.660894e-03 3.561274e-03 3.600954e-03 1.694946e-02 1.323280e-02 1.455103e-02 
    28.5                3.022550e-03 3.743365e-03 1.605825e-03 9.553350e-03 9.495565e-03 4.601866e-06 4.454810e-03 3.298636e-03 3.337418e-03 1.622180e-02 1.265895e-02 1.393071e-02 
    29.5                2.808154e-03 3.606524e-03 1.538241e-03 9.027698e-03 8.953673e-03 4.659966e-06 4.232371e-03 2.990130e-03 3.029673e-03 1.537000e-02 1.196009e-02 1.318274e-02 
    30.5                2.733464e-03 3.339366e-03 1.409315e-03 8.622790e-03 8.499425e-03 4.315823e-06 3.962988e-03 2.772477e-03 2.808456e-03 1.459004e-02 1.132834e-02 1.249128e-02 
    31.5                2.726394e-03 3.231019e-03 1.364408e-03 8.361785e-03 8.198187e-03 4.564512e-06 3.885551e-03 2.609155e-03 2.644711e-03 1.418549e-02 1.099112e-02 1.213425e-02 
    32.5                2.622103e-03 3.148376e-03 1.383392e-03 7.802355e-03 7.701045e-03 4.950866e-06 3.785595e-03 2.397534e-03 2.435224e-03 1.343893e-02 1.044876e-02 1.154036e-02 
    33.5                2.689525e-03 3.062554e-03 1.444361e-03 7.503200e-03 7.437192e-03 5.714685e-06 3.809534e-03 2.216713e-03 2.258114e-03 1.312913e-02 1.022599e-02 1.131960e-02 
    34.5                2.694807e-03 3.125285e-03 1.501279e-03 7.502809e-03 7.459370e-03 6.067076e-06 3.888112e-03 2.130467e-03 2.175365e-03 1.324337e-02 1.030059e-02 1.140858e-02 
    35.5                2.608442e-03 3.015179e-03 1.580717e-03 6.779807e-03 6.898901e-03 6.451762e-06 3.829328e-03 1.992920e-03 2.040484e-03 1.237430e-02 9.711652e-03 1.073808e-02 
    36.5                2.664928e-03 2.926472e-03 1.652561e-03 6.538588e-03 6.739882e-03 6.839538e-06 3.876992e-03 1.862559e-03 1.913598e-03 1.216659e-02 9.572704e-03 1.057631e-02 
    37.5                2.750053e-03 3.050989e-03 1.761593e-03 6.488640e-03 6.825457e-03 6.807036e-06 4.025901e-03 1.803703e-03 1.859666e-03 1.231377e-02 9.807251e-03 1.077493e-02 
    38.5                2.960123e-03 2.968390e-03 1.982777e-03 6.095565e-03 6.756186e-03 6.758188e-06 4.269204e-03 1.726319e-03 1.792603e-03 1.218947e-02 9.860337e-03 1.073151e-02 
    39.5                2.850333e-03 3.211441e-03 2.161025e-03 5.869209e-03 6.766103e-03 6.858500e-06 4.494794e-03 1.670680e-03 1.743533e-03 1.222315e-02 9.986859e-03 1.080150e-02 
    40.5                2.942320e-03 3.153885e-03 2.165619e-03 5.711294e-03 6.631151e-03 6.951616e-06 4.470039e-03 1.602943e-03 1.675074e-03 1.202183e-02 9.914109e-03 1.070682e-02 
    41.5                3.256826e-03 3.192671e-03 2.485070e-03 5.482468e-03 6.792147e-03 7.274898e-06 4.895728e-03 1.577971e-03 1.661631e-03 1.229540e-02 1.032713e-02 1.104915e-02 
    42.5                3.163558e-03 3.484974e-03 2.790219e-03 5.053130e-03 6.783349e-03 7.453058e-06 5.248708e-03 1.566871e-03 1.660192e-03 1.224713e-02 1.049911e-02 1.112594e-02 
    43.5                3.346908e-03 3.385870e-03 2.850665e-03 4.667752e-03 6.585790e-03 7.193299e-06 5.275364e-03 1.514791e-03 1.608858e-03 1.182640e-02 1.041568e-02 1.095113e-02 
    44.5                3.686243e-03 3.549782e-03 3.258177e-03 4.646608e-03 7.018526e-03 7.629665e-06 5.893140e-03 1.555904e-03 1.663619e-03 1.254722e-02 1.116703e-02 1.165657e-02 
    45.5                3.667575e-03 3.917265e-03 3.490620e-03 4.448233e-03 7.140835e-03 7.583350e-06 6.197801e-03 1.555510e-03 1.668630e-03 1.270868e-02 1.154694e-02 1.196416e-02 
    46.5                3.761197e-03 3.839585e-03 3.626800e-03 4.214297e-03 7.076867e-03 7.888548e-06 6.332069e-03 1.517385e-03 1.632961e-03 1.258427e-02 1.152502e-02 1.191528e-02 
    47.5                4.019372e-03 3.989011e-03 3.893361e-03 4.053126e-03 7.253990e-03 8.164344e-06 6.701114e-03 1.535109e-03 1.656416e-03 1.279224e-02 1.199856e-02 1.232731e-02 
    48.5                4.400118e-03 4.078047e-03 4.327185e-03 3.749905e-03 7.585350e-03 7.646761e-06 7.323610e-03 1.575362e-03 1.708498e-03 1.312250e-02 1.263170e-02 1.281357e-02 
    49.5                4.837348e-03 4.517743e-03 4.819779e-03 3.677782e-03 8.083077e-03 8.282507e-06 8.056324e-03 1.628694e-03 1.774749e-03 1.387418e-02 1.373343e-02 1.385014e-02 
    50.5                5.545682e-03 4.814345e-03 5.536709e-03 3.504470e-03 8.818464e-03 8.482510e-06 9.136473e-03 1.702327e-03 1.867567e-03 1.488370e-02 1.512425e-02 1.509663e-02 
    51.5                6.107082e-03 5.496672e-03 6.489016e-03 3.291492e-03 9.795677e-03 8.741450e-06 1.056744e-02 1.773834e-03 1.963594e-03 1.617633e-02 1.688940e-02 1.668229e-02 
    52.5                6.104643e-03 6.191088e-03 6.979595e-03 2.992384e-03 1.017400e-02 8.673497e-06 1.127544e-02 1.814723e-03 2.013900e-03 1.652759e-02 1.774436e-02 1.740655e-02 
    53.5                6.186836e-03 6.310429e-03 7.166914e-03 2.674020e-03 1.019092e-02 8.382693e-06 1.151607e-02 1.828805e-03 2.028688e-03 1.634108e-02 1.792800e-02 1.749263e-02 
    54.5                5.826814e-03 6.423067e-03 7.148229e-03 2.378996e-03 9.987254e-03 7.804240e-06 1.144483e-02 1.810100e-03 2.005206e-03 1.585426e-02 1.757976e-02 1.707331e-02 
    55.5                5.877917e-03 6.351109e-03 7.019700e-03 2.191460e-03 9.717600e-03 7.567929e-06 1.121675e-02 1.784138e-03 1.971519e-03 1.534063e-02 1.735290e-02 1.682382e-02 
    56.5                5.603527e-03 6.213106e-03 6.934731e-03 1.964592e-03 9.473724e-03 7.086234e-06 1.105356e-02 1.741755e-03 1.923414e-03 1.485552e-02 1.683827e-02 1.627193e-02 
    57.5                5.113437e-03 5.979824e-03 6.489989e-03 1.725575e-03 8.798794e-03 6.519101e-06 1.033191e-02 1.656733e-03 1.822413e-03 1.371269e-02 1.574248e-02 1.518249e-02 
    58.5                4.902237e-03 5.495833e-03 6.113989e-03 1.484519e-03 8.202177e-03 5.913948e-06 9.716453e-03 1.532256e-03 1.684991e-03 1.268019e-02 1.471606e-02 1.415811e-02 
    59.5                4.675670e-03 5.196749e-03 5.865119e-03 1.281711e-03 7.775916e-03 5.470572e-06 9.299967e-03 1.404869e-03 1.548796e-03 1.193797e-02 1.396401e-02 1.340343e-02 
    60.5                4.253597e-03 5.019894e-03 5.505357e-03 1.123467e-03 7.247774e-03 5.069098e-06 8.719294e-03 1.252848e-03 1.384835e-03 1.105297e-02 1.307630e-02 1.253206e-02 
    61.5                3.703385e-03 4.541844e-03 5.006800e-03 8.937969e-04 6.509459e-03 4.374993e-06 7.911673e-03 1.096031e-03 1.213212e-03 9.820566e-03 1.168238e-02 1.116004e-02 
    62.5                3.028332e-03 4.191618e-03 4.288968e-03 7.278949e-04 5.551750e-03 3.799045e-06 6.773792e-03 9.359636e-04 1.033843e-03 8.325611e-03 1.011035e-02 9.656687e-03 
    63.5                2.473619e-03 3.423712e-03 3.526413e-03 5.373768e-04 4.523564e-03 3.048897e-06 5.559787e-03 7.706403e-04 8.494016e-04 6.739570e-03 8.253123e-03 7.870354e-03 
    64.5                1.979004e-03 2.819102e-03 2.864944e-03 4.144992e-04 3.660993e-03 2.463924e-06 4.514071e-03 6.102925e-04 6.729961e-04 5.429269e-03 6.700991e-03 6.384772e-03 
    65.5                1.508302e-03 2.239667e-03 2.267511e-03 2.950289e-04 2.876287e-03 1.891200e-06 3.568666e-03 4.598628e-04 5.083614e-04 4.232300e-03 5.247514e-03 4.990308e-03 
    66.5                1.072710e-03 1.796923e-03 1.727475e-03 2.052134e-04 2.178438e-03 1.428873e-06 2.716429e-03 3.289698e-04 3.650994e-04 3.183014e-03 3.998601e-03 3.799551e-03 
    67.5                6.870964e-04 1.317950e-03 1.197348e-03 1.288793e-04 1.500627e-03 9.903663e-07 1.880946e-03 2.135051e-04 2.379358e-04 2.175854e-03 2.778511e-03 2.638542e-03 
    68.5                3.857120e-04 8.853061e-04 7.584555e-04 7.139585e-05 9.441101e-04 6.199795e-07 1.190414e-03 1.222686e-04 1.373679e-04 1.354830e-03 1.756210e-03 1.665530e-03 
    69.5                1.704321e-04 5.410651e-04 4.151014e-04 3.459494e-05 5.136510e-04 3.473103e-07 6.513519e-04 5.914823e-05 6.721684e-05 7.301291e-04 9.712295e-04 9.212124e-04 
    70.5                4.362516e-05 2.708278e-04 1.753384e-04 1.305963e-05 2.157719e-04 1.564672e-07 2.749473e-04 2.227293e-05 2.557369e-05 3.038260e-04 4.213758e-04 4.002537e-04 
    71.5                5.765279e-06 9.749415e-05 4.699180e-05 3.671053e-06 5.782815e-05 5.711892e-08 7.382370e-05 5.605944e-06 6.459981e-06 8.120362e-05 1.288432e-04 1.236211e-04 
    72.5                1.270967e-07 1.701541e-05 6.455881e-06 4.497480e-07 7.886944e-06 1.067555e-08 1.016989e-05 7.879763e-07 9.009293e-07 1.096505e-05 2.025557e-05 1.958742e-05 
    73.5                0.000000e+00 1.297298e-06 3.102530e-07 1.319139e-08 3.731414e-07 1.016821e-09 4.934217e-07 3.230184e-08 3.754348e-08 5.087722e-07 1.385218e-06 1.362638e-06 
    74.5                0.000000e+00 0.000000e+00 0.000000e+00 0.000000e+00 0.000000e+00 0.000000e+00 0.000000e+00 0.000000e+00 0.000000e+00 0.000000e+00 0.000000e+00 0.000000e+00 
    75.5                0.000000e+00 0.000000e+00 0.000000e+00 0.000000e+00 0.000000e+00 0.000000e+00 0.000000e+00 0.000000e+00 0.000000e+00 0.000000e+00 0.000000e+00 0.000000e+00 
    76.5                0.000000e+00 0.000000e+00 0.000000e+00 0.000000e+00 0.000000e+00 0.000000e+00 0.000000e+00 0.000000e+00 0.000000e+00 0.000000e+00 0.000000e+00 0.000000e+00 
    77.5                0.000000e+00 0.000000e+00 0.000000e+00 0.000000e+00 0.000000e+00 0.000000e+00 0.000000e+00 0.000000e+00 0.000000e+00 0.000000e+00 0.000000e+00 0.000000e+00 
    78.5                0.000000e+00 0.000000e+00 0.000000e+00 0.000000e+00 0.000000e+00 0.000000e+00 0.000000e+00 0.000000e+00 0.000000e+00 0.000000e+00 0.000000e+00 0.000000e+00 
    79.5                0.000000e+00 0.000000e+00 0.000000e+00 0.000000e+00 0.000000e+00 0.000000e+00 0.000000e+00 0.000000e+00 0.000000e+00 0.000000e+00 0.000000e+00 0.000000e+00 


