# 80 rows of flux data
# 12 columns of flux data
# 
# total cross-sectional flux  1.088808e+00 /m^2/yr
#
#                             +x ram      -x wake      +y port -y starboard    +z zenith     -z nadir        Earth          Sun     anti-Sun      rot (x)      rot (y)      rot (z) 
# average speed (km/s)         37.51        37.51        40.77        28.41        33.84        37.48        37.55        27.77        27.76        33.78        35.59        35.14 
# total flux (#/m2/yr)  2.451455e-01 2.449210e-01 2.247498e-01 3.575000e-01 5.513398e-01 3.541261e-04 2.444767e-01 1.800820e-01 1.801007e-01 9.045562e-01 8.181907e-01 8.377106e-01 
# velocity (km/s)
     0.5                0.000000e+00 0.000000e+00 0.000000e+00 0.000000e+00 0.000000e+00 0.000000e+00 0.000000e+00 0.000000e+00 0.000000e+00 0.000000e+00 0.000000e+00 0.000000e+00 
     1.5                0.000000e+00 0.000000e+00 0.000000e+00 0.000000e+00 0.000000e+00 0.000000e+00 0.000000e+00 0.000000e+00 0.000000e+00 0.000000e+00 0.000000e+00 0.000000e+00 
     2.5                9.009311e-05 9.076582e-05 4.546680e-05 1.061445e-04 1.167897e-04 8.894794e-08 8.966882e-05 7.551030e-05 7.564432e-05 2.116965e-04 2.330381e-04 2.610144e-04 
     3.5                4.383037e-04 4.388177e-04 3.441712e-04 4.167418e-04 6.985224e-04 4.174523e-07 4.361118e-04 3.996339e-04 3.994974e-04 1.147777e-03 1.232479e-03 1.280802e-03 
     4.5                9.582900e-04 9.577910e-04 9.696727e-04 8.350562e-04 1.753853e-03 9.605263e-07 9.532470e-04 9.762365e-04 9.764436e-04 2.805595e-03 2.873521e-03 2.914118e-03 
     5.5                1.527679e-03 1.525783e-03 1.662446e-03 1.411711e-03 2.987021e-03 1.704444e-06 1.518787e-03 1.699972e-03 1.700160e-03 4.797278e-03 4.732413e-03 4.799275e-03 
     6.5                2.102028e-03 2.098704e-03 2.302451e-03 2.173928e-03 4.384221e-03 2.521815e-06 2.089162e-03 2.457632e-03 2.458179e-03 7.013904e-03 6.738235e-03 6.801789e-03 
     7.5                2.604435e-03 2.601146e-03 2.777705e-03 3.087384e-03 5.709417e-03 3.163993e-06 2.588121e-03 3.129168e-03 3.129581e-03 9.150603e-03 8.565014e-03 8.676760e-03 
     8.5                3.029494e-03 3.024848e-03 3.158686e-03 3.969983e-03 6.958137e-03 3.891361e-06 3.010416e-03 3.711795e-03 3.712732e-03 1.112933e-02 1.022883e-02 1.033855e-02 
     9.5                3.422052e-03 3.417248e-03 3.422277e-03 4.906815e-03 8.093475e-03 4.303130e-06 3.400152e-03 4.240720e-03 4.241692e-03 1.294188e-02 1.173410e-02 1.189741e-02 
    10.5                3.705875e-03 3.700229e-03 3.571097e-03 5.851394e-03 9.100971e-03 4.822559e-06 3.681881e-03 4.677915e-03 4.678998e-03 1.457260e-02 1.297919e-02 1.320092e-02 
    11.5                4.042061e-03 4.036729e-03 3.734884e-03 6.994177e-03 1.030987e-02 5.192444e-06 4.015500e-03 5.200393e-03 5.201212e-03 1.650591e-02 1.447463e-02 1.477709e-02 
    12.5                4.256234e-03 4.249721e-03 3.784873e-03 7.898580e-03 1.119647e-02 5.446425e-06 4.227582e-03 5.570192e-03 5.571236e-03 1.792294e-02 1.549449e-02 1.585257e-02 
    13.5                4.323221e-03 4.317163e-03 3.711266e-03 8.637820e-03 1.196074e-02 5.517150e-06 4.295387e-03 5.699680e-03 5.700869e-03 1.896676e-02 1.625096e-02 1.651442e-02 
    14.5                4.334912e-03 4.329553e-03 3.576284e-03 9.269744e-03 1.213466e-02 5.420138e-06 4.307368e-03 5.732047e-03 5.732999e-03 1.944980e-02 1.640144e-02 1.695456e-02 
    15.5                4.434371e-03 4.427856e-03 3.465810e-03 1.010085e-02 1.290329e-02 5.560067e-06 4.406694e-03 5.807903e-03 5.809195e-03 2.054138e-02 1.717931e-02 1.767479e-02 
    16.5                4.410570e-03 4.404288e-03 3.362268e-03 1.038583e-02 1.297665e-02 5.465402e-06 4.383305e-03 5.803974e-03 5.805111e-03 2.073198e-02 1.721033e-02 1.779302e-02 
    17.5                4.434513e-03 4.427865e-03 3.293512e-03 1.076631e-02 1.322221e-02 5.407449e-06 4.407328e-03 5.787010e-03 5.788150e-03 2.114984e-02 1.743765e-02 1.807906e-02 
    18.5                4.428688e-03 4.423170e-03 3.141861e-03 1.119921e-02 1.340464e-02 5.464267e-06 4.402462e-03 5.707135e-03 5.707985e-03 2.148008e-02 1.756370e-02 1.828869e-02 
    19.5                4.428298e-03 4.422403e-03 3.041861e-03 1.136823e-02 1.337674e-02 5.474670e-06 4.401736e-03 5.606059e-03 5.607369e-03 2.153147e-02 1.751745e-02 1.831962e-02 
    20.5                4.327130e-03 4.321194e-03 2.950422e-03 1.128644e-02 1.316609e-02 5.248952e-06 4.301853e-03 5.395724e-03 5.396711e-03 2.126295e-02 1.717038e-02 1.800717e-02 
    21.5                4.258611e-03 4.254468e-03 2.728340e-03 1.147526e-02 1.300473e-02 5.254518e-06 4.235272e-03 5.194460e-03 5.195389e-03 2.110527e-02 1.693845e-02 1.787134e-02 
    22.5                4.296415e-03 4.290462e-03 2.698277e-03 1.168878e-02 1.322310e-02 5.266306e-06 4.273684e-03 5.100438e-03 5.101409e-03 2.142236e-02 1.714482e-02 1.805344e-02 
    23.5                4.049321e-03 4.043545e-03 2.532576e-03 1.104517e-02 1.249094e-02 5.054718e-06 4.028214e-03 4.763872e-03 4.764726e-03 2.026116e-02 1.617724e-02 1.701158e-02 
    24.5                3.895202e-03 3.890872e-03 2.348765e-03 1.069743e-02 1.182938e-02 4.887091e-06 3.875256e-03 4.473866e-03 4.474694e-03 1.936132e-02 1.537855e-02 1.632842e-02 
    25.5                3.770867e-03 3.765653e-03 2.204549e-03 1.043903e-02 1.153142e-02 4.776910e-06 3.751266e-03 4.206991e-03 4.207614e-03 1.883009e-02 1.493819e-02 1.579462e-02 
    26.5                3.697297e-03 3.693242e-03 2.124244e-03 1.014301e-02 1.099708e-02 4.593960e-06 3.678635e-03 3.990512e-03 3.991365e-03 1.816668e-02 1.436715e-02 1.535478e-02 
    27.5                3.597278e-03 3.593363e-03 2.039061e-03 9.698895e-03 1.060087e-02 4.730598e-06 3.579331e-03 3.784158e-03 3.784356e-03 1.749588e-02 1.387901e-02 1.473594e-02 
    28.5                3.463397e-03 3.458704e-03 1.953351e-03 9.316614e-03 1.004721e-02 4.905613e-06 3.447059e-03 3.524979e-03 3.525879e-03 1.676347e-02 1.322295e-02 1.414418e-02 
    29.5                3.287126e-03 3.283505e-03 1.874812e-03 8.740160e-03 9.559904e-03 4.947396e-06 3.272605e-03 3.187984e-03 3.188370e-03 1.589518e-02 1.256276e-02 1.334692e-02 
    30.5                3.096820e-03 3.093496e-03 1.726202e-03 8.449852e-03 8.958417e-03 4.635588e-06 3.084167e-03 2.939954e-03 2.940333e-03 1.510015e-02 1.179250e-02 1.271621e-02 
    31.5                3.046115e-03 3.043007e-03 1.617900e-03 8.214513e-03 8.589453e-03 4.768408e-06 3.034091e-03 2.774129e-03 2.774553e-03 1.458669e-02 1.139760e-02 1.232200e-02 
    32.5                2.930014e-03 2.925149e-03 1.612700e-03 7.655751e-03 8.095286e-03 5.113415e-06 2.918962e-03 2.543393e-03 2.543768e-03 1.384836e-02 1.083960e-02 1.168813e-02 
    33.5                2.922789e-03 2.920535e-03 1.690999e-03 7.403490e-03 7.719707e-03 5.802797e-06 2.913701e-03 2.344632e-03 2.344844e-03 1.350267e-02 1.051832e-02 1.153037e-02 
    34.5                2.968878e-03 2.966741e-03 1.729913e-03 7.393462e-03 7.788996e-03 6.095554e-06 2.960359e-03 2.239687e-03 2.239916e-03 1.361275e-02 1.064177e-02 1.159709e-02 
    35.5                2.851099e-03 2.846722e-03 1.775820e-03 6.695842e-03 7.205663e-03 6.404497e-06 2.842994e-03 2.106276e-03 2.106517e-03 1.273563e-02 1.001922e-02 1.089975e-02 
    36.5                2.862016e-03 2.859144e-03 1.837592e-03 6.529656e-03 6.927596e-03 6.467339e-06 2.855303e-03 1.982589e-03 1.982704e-03 1.248645e-02 9.807231e-03 1.083666e-02 
    37.5                2.900552e-03 2.898173e-03 1.933175e-03 6.340199e-03 7.075543e-03 6.574804e-06 2.894045e-03 1.901200e-03 1.901418e-03 1.254132e-02 1.000155e-02 1.079871e-02 
    38.5                2.947054e-03 2.945326e-03 1.994327e-03 6.051914e-03 6.752422e-03 7.017413e-06 2.941493e-03 1.807043e-03 1.807200e-03 1.217108e-02 9.844453e-03 1.068445e-02 
    39.5                3.127494e-03 3.122975e-03 2.336790e-03 5.863872e-03 7.010665e-03 6.857881e-06 3.123500e-03 1.774169e-03 1.774267e-03 1.258009e-02 1.031113e-02 1.109858e-02 
    40.5                3.069098e-03 3.069261e-03 2.332855e-03 5.670134e-03 6.820856e-03 6.861820e-06 3.064618e-03 1.698124e-03 1.698244e-03 1.228767e-02 1.008580e-02 1.084708e-02 
    41.5                3.179106e-03 3.177416e-03 2.422245e-03 5.451052e-03 6.748234e-03 7.367171e-06 3.175001e-03 1.637420e-03 1.637236e-03 1.218400e-02 1.022930e-02 1.089898e-02 
    42.5                3.401237e-03 3.399557e-03 2.898288e-03 5.023318e-03 7.000768e-03 7.316852e-06 3.396923e-03 1.660665e-03 1.660744e-03 1.250216e-02 1.078035e-02 1.131532e-02 
    43.5                3.301768e-03 3.298722e-03 2.971458e-03 4.583105e-03 6.653192e-03 7.086050e-06 3.298949e-03 1.585793e-03 1.585515e-03 1.193748e-02 1.037620e-02 1.090022e-02 
    44.5                3.621233e-03 3.620549e-03 3.197247e-03 4.640770e-03 6.896720e-03 7.451752e-06 3.616449e-03 1.616799e-03 1.616727e-03 1.238891e-02 1.107609e-02 1.160863e-02 
    45.5                3.810925e-03 3.809270e-03 3.646958e-03 4.428283e-03 7.350637e-03 7.850922e-06 3.807799e-03 1.669368e-03 1.669421e-03 1.300215e-02 1.173822e-02 1.210581e-02 
    46.5                3.803640e-03 3.805569e-03 3.665230e-03 4.252067e-03 7.148304e-03 7.776513e-06 3.802191e-03 1.603010e-03 1.602694e-03 1.273240e-02 1.158179e-02 1.198859e-02 
    47.5                3.942897e-03 3.938482e-03 3.910551e-03 3.960727e-03 7.276354e-03 7.730311e-06 3.939273e-03 1.592508e-03 1.592320e-03 1.277757e-02 1.190571e-02 1.218364e-02 
    48.5                4.136696e-03 4.136610e-03 4.124987e-03 3.760524e-03 7.312237e-03 7.933318e-06 4.133532e-03 1.646610e-03 1.646418e-03 1.279089e-02 1.228343e-02 1.251796e-02 
    49.5                4.548674e-03 4.550982e-03 4.716942e-03 3.621143e-03 7.917389e-03 8.037027e-06 4.547361e-03 1.687289e-03 1.686821e-03 1.362512e-02 1.340050e-02 1.353198e-02 
    50.5                4.919805e-03 4.920448e-03 5.107643e-03 3.486674e-03 8.319862e-03 8.369086e-06 4.916919e-03 1.753367e-03 1.752926e-03 1.415482e-02 1.433812e-02 1.433496e-02 
    51.5                5.656417e-03 5.655316e-03 6.023384e-03 3.299284e-03 9.271904e-03 8.832359e-06 5.652711e-03 1.851859e-03 1.851795e-03 1.546762e-02 1.627050e-02 1.611328e-02 
    52.5                6.174381e-03 6.176378e-03 6.961922e-03 2.959844e-03 1.019118e-02 8.741115e-06 6.173030e-03 1.919775e-03 1.919112e-03 1.657120e-02 1.780542e-02 1.743716e-02 
    53.5                6.263221e-03 6.261733e-03 7.208804e-03 2.655740e-03 1.025611e-02 8.361240e-06 6.262445e-03 1.950195e-03 1.949878e-03 1.645126e-02 1.800865e-02 1.754945e-02 
    54.5                6.367785e-03 6.362016e-03 7.415107e-03 2.371336e-03 1.033631e-02 7.997071e-06 6.368270e-03 1.951221e-03 1.951301e-03 1.637399e-02 1.822922e-02 1.767461e-02 
    55.5                6.132854e-03 6.128807e-03 7.394509e-03 2.124235e-03 1.013195e-02 7.434401e-06 6.132092e-03 1.915391e-03 1.914943e-03 1.591702e-02 1.770008e-02 1.709668e-02 
    56.5                6.117143e-03 6.114751e-03 7.260627e-03 1.987712e-03 9.890914e-03 7.120572e-06 6.116230e-03 1.888078e-03 1.887803e-03 1.545364e-02 1.748006e-02 1.686842e-02 
    57.5                5.755770e-03 5.749271e-03 7.015485e-03 1.689704e-03 9.451874e-03 6.430794e-06 5.755836e-03 1.828022e-03 1.827619e-03 1.462908e-02 1.655888e-02 1.590202e-02 
    58.5                5.322095e-03 5.320622e-03 6.494167e-03 1.450149e-03 8.647265e-03 5.891676e-06 5.323415e-03 1.700349e-03 1.700045e-03 1.331356e-02 1.525473e-02 1.463252e-02 
    59.5                5.079401e-03 5.076965e-03 6.160981e-03 1.296391e-03 8.149734e-03 5.500681e-06 5.078890e-03 1.570501e-03 1.570314e-03 1.248081e-02 1.447297e-02 1.386878e-02 
    60.5                4.842196e-03 4.833691e-03 5.977127e-03 1.092554e-03 7.814457e-03 5.037046e-06 4.843160e-03 1.425906e-03 1.425959e-03 1.187024e-02 1.382436e-02 1.320684e-02 
    61.5                4.384840e-03 4.385330e-03 5.431354e-03 9.071818e-04 7.049211e-03 4.471530e-06 4.385254e-03 1.256568e-03 1.256274e-03 1.061277e-02 1.251127e-02 1.192806e-02 
    62.5                3.897937e-03 3.893572e-03 5.049883e-03 6.755661e-04 6.440185e-03 3.711730e-06 3.899528e-03 1.094975e-03 1.094710e-03 9.574428e-03 1.123807e-02 1.066956e-02 
    63.5                3.185974e-03 3.179064e-03 4.130432e-03 5.251129e-04 5.252337e-03 2.979735e-06 3.187374e-03 9.131378e-04 9.131027e-04 7.754623e-03 9.170767e-03 8.696230e-03 
    64.5                2.614593e-03 2.612064e-03 3.412792e-03 3.935880e-04 4.310555e-03 2.399834e-06 2.616117e-03 7.406922e-04 7.405687e-04 6.338666e-03 7.531040e-03 7.133679e-03 
    65.5                2.068903e-03 2.067183e-03 2.717858e-03 2.832289e-04 3.414354e-03 1.872382e-06 2.070372e-03 5.697070e-04 5.696389e-04 4.990004e-03 5.962538e-03 5.639748e-03 
    66.5                1.624246e-03 1.620135e-03 2.186930e-03 1.915701e-04 2.724079e-03 1.384505e-06 1.625625e-03 4.246574e-04 4.245636e-04 3.941999e-03 4.707172e-03 4.440710e-03 
    67.5                1.164982e-03 1.160625e-03 1.608861e-03 1.149735e-04 1.988343e-03 9.355602e-07 1.166286e-03 2.894237e-04 2.894413e-04 2.850793e-03 3.399285e-03 3.198208e-03 
    68.5                7.605550e-04 7.583455e-04 1.085565e-03 6.099159e-05 1.330369e-03 5.777774e-07 7.616588e-04 1.768373e-04 1.767763e-04 1.886107e-03 2.243623e-03 2.104167e-03 
    69.5                4.462753e-04 4.447582e-04 6.655605e-04 2.537743e-05 8.082076e-04 2.959926e-07 4.473329e-04 9.311339e-05 9.310808e-05 1.130294e-03 1.334425e-03 1.246577e-03 
    70.5                2.103277e-04 2.096079e-04 3.342573e-04 7.485822e-06 4.025321e-04 1.183374e-07 2.109463e-04 3.915675e-05 3.914186e-05 5.540419e-04 6.441841e-04 5.986072e-04 
    71.5                6.379957e-05 6.351374e-05 1.206939e-04 9.124103e-07 1.442637e-04 2.281203e-08 6.414815e-05 1.077560e-05 1.077316e-05 1.946465e-04 2.114942e-04 1.940326e-04 
    72.5                9.634278e-06 9.559275e-06 2.107542e-05 2.730130e-08 2.510783e-05 2.158495e-09 9.724757e-06 1.609927e-06 1.611416e-06 3.332053e-05 3.453293e-05 3.132980e-05 
    73.5                5.025036e-07 4.927551e-07 1.601203e-06 0.000000e+00 1.906938e-06 0.000000e+00 5.114082e-07 6.728531e-08 6.739156e-08 2.498471e-06 2.259316e-06 1.996764e-06 
    74.5                0.000000e+00 0.000000e+00 0.000000e+00 0.000000e+00 0.000000e+00 0.000000e+00 0.000000e+00 0.000000e+00 0.000000e+00 0.000000e+00 0.000000e+00 0.000000e+00 
    75.5                0.000000e+00 0.000000e+00 0.000000e+00 0.000000e+00 0.000000e+00 0.000000e+00 0.000000e+00 0.000000e+00 0.000000e+00 0.000000e+00 0.000000e+00 0.000000e+00 
    76.5                0.000000e+00 0.000000e+00 0.000000e+00 0.000000e+00 0.000000e+00 0.000000e+00 0.000000e+00 0.000000e+00 0.000000e+00 0.000000e+00 0.000000e+00 0.000000e+00 
    77.5                0.000000e+00 0.000000e+00 0.000000e+00 0.000000e+00 0.000000e+00 0.000000e+00 0.000000e+00 0.000000e+00 0.000000e+00 0.000000e+00 0.000000e+00 0.000000e+00 
    78.5                0.000000e+00 0.000000e+00 0.000000e+00 0.000000e+00 0.000000e+00 0.000000e+00 0.000000e+00 0.000000e+00 0.000000e+00 0.000000e+00 0.000000e+00 0.000000e+00 
    79.5                0.000000e+00 0.000000e+00 0.000000e+00 0.000000e+00 0.000000e+00 0.000000e+00 0.000000e+00 0.000000e+00 0.000000e+00 0.000000e+00 0.000000e+00 0.000000e+00 


