# 80 rows of flux data
# 12 columns of flux data
# 
# total cross-sectional flux  1.012320e+00 /m^2/yr
#
#                             +x ram      -x wake      +y port -y starboard    +z zenith     -z nadir        Earth          Sun     anti-Sun      rot (x)      rot (y)      rot (z) 
# average speed (km/s)         37.70        37.71        42.49        28.15        34.29        37.65        37.74        28.16        28.15        33.83        35.99        35.03 
# total flux (#/m2/yr)  2.308124e-01 2.307773e-01 1.848872e-01 3.742799e-01 4.898738e-01 3.528356e-04 2.301384e-01 1.599295e-01 1.599011e-01 8.370848e-01 7.474662e-01 7.969574e-01 
# velocity (km/s)
     0.5                0.000000e+00 0.000000e+00 0.000000e+00 0.000000e+00 0.000000e+00 0.000000e+00 0.000000e+00 0.000000e+00 0.000000e+00 0.000000e+00 0.000000e+00 0.000000e+00 
     1.5                0.000000e+00 0.000000e+00 0.000000e+00 0.000000e+00 0.000000e+00 0.000000e+00 0.000000e+00 0.000000e+00 0.000000e+00 0.000000e+00 0.000000e+00 0.000000e+00 
     2.5                8.981353e-05 9.067294e-05 1.058273e-04 4.604279e-05 1.933929e-04 4.187129e-08 9.010737e-05 9.294950e-05 9.285691e-05 2.710456e-04 2.926427e-04 2.608721e-04 
     3.5                4.584683e-04 4.586176e-04 4.803148e-04 3.150688e-04 8.455756e-04 4.536974e-07 4.560475e-04 4.699709e-04 4.697700e-04 1.300655e-03 1.389078e-03 1.337231e-03 
     4.5                8.915322e-04 8.908055e-04 8.480931e-04 7.782776e-04 1.612867e-03 1.108906e-06 8.856656e-04 9.473246e-04 9.469807e-04 2.567429e-03 2.680249e-03 2.660037e-03 
     5.5                1.357856e-03 1.356791e-03 1.230759e-03 1.411653e-03 2.502329e-03 1.875580e-06 1.348731e-03 1.499622e-03 1.499199e-03 4.085399e-03 4.114040e-03 4.179676e-03 
     6.5                1.811094e-03 1.808835e-03 1.544690e-03 2.286618e-03 3.462982e-03 2.598315e-06 1.798481e-03 2.040824e-03 2.040509e-03 5.784483e-03 5.586251e-03 5.823162e-03 
     7.5                2.232299e-03 2.228957e-03 1.791064e-03 3.261267e-03 4.481217e-03 3.266719e-06 2.215950e-03 2.553794e-03 2.553171e-03 7.535022e-03 7.045589e-03 7.432544e-03 
     8.5                2.633160e-03 2.629921e-03 2.041866e-03 4.292434e-03 5.457682e-03 3.883166e-06 2.614661e-03 3.074112e-03 3.073668e-03 9.310091e-03 8.442420e-03 9.080133e-03 
     9.5                2.945272e-03 2.941661e-03 2.150936e-03 5.291809e-03 6.347704e-03 4.349459e-06 2.924234e-03 3.502577e-03 3.502021e-03 1.085741e-02 9.631869e-03 1.043851e-02 
    10.5                3.265620e-03 3.262207e-03 2.330795e-03 6.316996e-03 7.300074e-03 4.733757e-06 3.242305e-03 3.974637e-03 3.973948e-03 1.253661e-02 1.087791e-02 1.189744e-02 
    11.5                3.544919e-03 3.540443e-03 2.382500e-03 7.543533e-03 8.288855e-03 5.098854e-06 3.519630e-03 4.380875e-03 4.379794e-03 1.426841e-02 1.210589e-02 1.336480e-02 
    12.5                3.768105e-03 3.763541e-03 2.385329e-03 8.544512e-03 9.030511e-03 5.288040e-06 3.741330e-03 4.657333e-03 4.657016e-03 1.560107e-02 1.302082e-02 1.449224e-02 
    13.5                3.857475e-03 3.852130e-03 2.369693e-03 9.512444e-03 9.596191e-03 5.310497e-06 3.831280e-03 4.798616e-03 4.797859e-03 1.674862e-02 1.361936e-02 1.544847e-02 
    14.5                3.895476e-03 3.890578e-03 2.325872e-03 9.926197e-03 1.009944e-02 5.298293e-06 3.869484e-03 4.870508e-03 4.869573e-03 1.736987e-02 1.409581e-02 1.580603e-02 
    15.5                4.024882e-03 4.020301e-03 2.302772e-03 1.096477e-02 1.072043e-02 5.368381e-06 3.999076e-03 5.026837e-03 5.026467e-03 1.861399e-02 1.477400e-02 1.684152e-02 
    16.5                4.036750e-03 4.032251e-03 2.285036e-03 1.119355e-02 1.093262e-02 5.394831e-06 4.011293e-03 5.065046e-03 5.064262e-03 1.893254e-02 1.496676e-02 1.703749e-02 
    17.5                4.056359e-03 4.052718e-03 2.206406e-03 1.157934e-02 1.116896e-02 5.296874e-06 4.032094e-03 5.013868e-03 5.013305e-03 1.933351e-02 1.518328e-02 1.731159e-02 
    18.5                4.093306e-03 4.088759e-03 2.182919e-03 1.200506e-02 1.149322e-02 5.248255e-06 4.068597e-03 5.014860e-03 5.014093e-03 1.989016e-02 1.548956e-02 1.768580e-02 
    19.5                4.094649e-03 4.091327e-03 2.072959e-03 1.213156e-02 1.150099e-02 5.285364e-06 4.071413e-03 4.892999e-03 4.892812e-03 1.991195e-02 1.547605e-02 1.767257e-02 
    20.5                3.988278e-03 3.985614e-03 1.974804e-03 1.200339e-02 1.132059e-02 5.228284e-06 3.965676e-03 4.729688e-03 4.729042e-03 1.960811e-02 1.515255e-02 1.730142e-02 
    21.5                4.002533e-03 3.999157e-03 1.952623e-03 1.213632e-02 1.145416e-02 5.186663e-06 3.980582e-03 4.650048e-03 4.649488e-03 1.981302e-02 1.528238e-02 1.740873e-02 
    22.5                3.996490e-03 3.993668e-03 1.812750e-03 1.243135e-02 1.146095e-02 5.107585e-06 3.975944e-03 4.495321e-03 4.494811e-03 1.993119e-02 1.525781e-02 1.749866e-02 
    23.5                3.793573e-03 3.790948e-03 1.730021e-03 1.178226e-02 1.084435e-02 4.845048e-06 3.774158e-03 4.222520e-03 4.222394e-03 1.892620e-02 1.444204e-02 1.659113e-02 
    24.5                3.654543e-03 3.652260e-03 1.615404e-03 1.125856e-02 1.044876e-02 4.668816e-06 3.636348e-03 3.978640e-03 3.977882e-03 1.813443e-02 1.389827e-02 1.582809e-02 
    25.5                3.576966e-03 3.575397e-03 1.560545e-03 1.108305e-02 1.015816e-02 4.558084e-06 3.559286e-03 3.788673e-03 3.788553e-03 1.775568e-02 1.352882e-02 1.551220e-02 
    26.5                3.487952e-03 3.486006e-03 1.480716e-03 1.058781e-02 9.850439e-03 4.530947e-06 3.470741e-03 3.582944e-03 3.582586e-03 1.709477e-02 1.313023e-02 1.487168e-02 
    27.5                3.395812e-03 3.393532e-03 1.398109e-03 1.023495e-02 9.357994e-03 4.504209e-06 3.378682e-03 3.378903e-03 3.378534e-03 1.643845e-02 1.256807e-02 1.435038e-02 
    28.5                3.267894e-03 3.267820e-03 1.357379e-03 9.738537e-03 8.969264e-03 4.754192e-06 3.254486e-03 3.112220e-03 3.112195e-03 1.576526e-02 1.206378e-02 1.370574e-02 
    29.5                3.105908e-03 3.103314e-03 1.252852e-03 9.283448e-03 8.365103e-03 4.627506e-06 3.091492e-03 2.833691e-03 2.833656e-03 1.488872e-02 1.133390e-02 1.300047e-02 
    30.5                2.932031e-03 2.930844e-03 1.162018e-03 8.776269e-03 8.054252e-03 4.389080e-06 2.919784e-03 2.643967e-03 2.643397e-03 1.416997e-02 1.082412e-02 1.225747e-02 
    31.5                2.902476e-03 2.901676e-03 1.172212e-03 8.489020e-03 7.837145e-03 4.453872e-06 2.891330e-03 2.480174e-03 2.480168e-03 1.383394e-02 1.058105e-02 1.195520e-02 
    32.5                2.808593e-03 2.807685e-03 1.173725e-03 7.959949e-03 7.308798e-03 5.026867e-06 2.798249e-03 2.289308e-03 2.289032e-03 1.308358e-02 1.002341e-02 1.138487e-02 
    33.5                2.803158e-03 2.803431e-03 1.261044e-03 7.539367e-03 7.164900e-03 5.705585e-06 2.794854e-03 2.131685e-03 2.131597e-03 1.278477e-02 9.910045e-03 1.108142e-02 
    34.5                2.851045e-03 2.849334e-03 1.315484e-03 7.590001e-03 7.149503e-03 6.241135e-06 2.841405e-03 2.066037e-03 2.065918e-03 1.289918e-02 9.957482e-03 1.122108e-02 
    35.5                2.748219e-03 2.749814e-03 1.388927e-03 6.878140e-03 6.599745e-03 6.636611e-06 2.741758e-03 1.927239e-03 1.927161e-03 1.204041e-02 9.378994e-03 1.056075e-02 
    36.5                2.743150e-03 2.743013e-03 1.446151e-03 6.517890e-03 6.546257e-03 6.710920e-06 2.736722e-03 1.792577e-03 1.792331e-03 1.178653e-02 9.347448e-03 1.028768e-02 
    37.5                2.849180e-03 2.850379e-03 1.684725e-03 6.545418e-03 6.626050e-03 6.724648e-06 2.843604e-03 1.759560e-03 1.759370e-03 1.213599e-02 9.568589e-03 1.067570e-02 
    38.5                2.972658e-03 2.974151e-03 2.016588e-03 6.114667e-03 6.735080e-03 7.013186e-06 2.968935e-03 1.713259e-03 1.713223e-03 1.224381e-02 9.867248e-03 1.079811e-02 
    39.5                2.978669e-03 2.980039e-03 1.912256e-03 5.932451e-03 6.482086e-03 6.914786e-06 2.974386e-03 1.641652e-03 1.641282e-03 1.180651e-02 9.691009e-03 1.054916e-02 
    40.5                2.982314e-03 2.983403e-03 2.071577e-03 5.698646e-03 6.504868e-03 6.798934e-06 2.977667e-03 1.578271e-03 1.578144e-03 1.180761e-02 9.710211e-03 1.050637e-02 
    41.5                3.262595e-03 3.264901e-03 2.555297e-03 5.518292e-03 6.834833e-03 7.222241e-06 3.260011e-03 1.603522e-03 1.603404e-03 1.241858e-02 1.041520e-02 1.120005e-02 
    42.5                3.297325e-03 3.297928e-03 2.579685e-03 5.155805e-03 6.524845e-03 7.493719e-06 3.292940e-03 1.563942e-03 1.563454e-03 1.191981e-02 1.025527e-02 1.097907e-02 
    43.5                3.331033e-03 3.332485e-03 2.903878e-03 4.619747e-03 6.595018e-03 7.260807e-06 3.326971e-03 1.538668e-03 1.538104e-03 1.184099e-02 1.037703e-02 1.090577e-02 
    44.5                3.647451e-03 3.649572e-03 3.303773e-03 4.585726e-03 7.095080e-03 7.580709e-06 3.645746e-03 1.602524e-03 1.602097e-03 1.261564e-02 1.127671e-02 1.169803e-02 
    45.5                3.716876e-03 3.720219e-03 3.394784e-03 4.506119e-03 6.980820e-03 7.763615e-06 3.715233e-03 1.555720e-03 1.555357e-03 1.253990e-02 1.131098e-02 1.180998e-02 
    46.5                3.799571e-03 3.797875e-03 3.555969e-03 4.225371e-03 7.034237e-03 7.829686e-06 3.792674e-03 1.545347e-03 1.544984e-03 1.243967e-02 1.148114e-02 1.184058e-02 
    47.5                3.992155e-03 3.996222e-03 3.971322e-03 4.039213e-03 7.317964e-03 7.849422e-06 3.991565e-03 1.598866e-03 1.598253e-03 1.284220e-02 1.202542e-02 1.234403e-02 
    48.5                4.376319e-03 4.374933e-03 4.509083e-03 3.756418e-03 7.786990e-03 8.026680e-06 4.369716e-03 1.638139e-03 1.637532e-03 1.344005e-02 1.300618e-02 1.318552e-02 
    49.5                4.683562e-03 4.688556e-03 5.090460e-03 3.615714e-03 8.382615e-03 8.080817e-06 4.683119e-03 1.714295e-03 1.713622e-03 1.426561e-02 1.397889e-02 1.402504e-02 
    50.5                5.377909e-03 5.388464e-03 6.024574e-03 3.532693e-03 9.390505e-03 8.426896e-06 5.382247e-03 1.816492e-03 1.816014e-03 1.570181e-02 1.586578e-02 1.580252e-02 
    51.5                6.061316e-03 6.071117e-03 6.793229e-03 3.338853e-03 1.016343e-02 8.872183e-06 6.064922e-03 1.886263e-03 1.885623e-03 1.669833e-02 1.758343e-02 1.736058e-02 
    52.5                6.197803e-03 6.195617e-03 6.898413e-03 3.053066e-03 1.005542e-02 8.787186e-06 6.190132e-03 1.909614e-03 1.908798e-03 1.637061e-02 1.773638e-02 1.745230e-02 
    53.5                6.268114e-03 6.268315e-03 7.075656e-03 2.698814e-03 1.007651e-02 8.385400e-06 6.263289e-03 1.907726e-03 1.906828e-03 1.616298e-02 1.786510e-02 1.746102e-02 
    54.5                6.021001e-03 6.022798e-03 6.707100e-03 2.440099e-03 9.456559e-03 8.058743e-06 6.016614e-03 1.864694e-03 1.864123e-03 1.512477e-02 1.702609e-02 1.661187e-02 
    55.5                5.965424e-03 5.969704e-03 6.824194e-03 2.149972e-03 9.438127e-03 7.458635e-06 5.963912e-03 1.840151e-03 1.839298e-03 1.493049e-02 1.690430e-02 1.640848e-02 
    56.5                5.760753e-03 5.761853e-03 6.512489e-03 2.010762e-03 8.990167e-03 7.169243e-06 5.756667e-03 1.777993e-03 1.777317e-03 1.417503e-02 1.623672e-02 1.573717e-02 
    57.5                5.314800e-03 5.317448e-03 5.980785e-03 1.763047e-03 8.175709e-03 6.466899e-06 5.312490e-03 1.651101e-03 1.650373e-03 1.281912e-02 1.490356e-02 1.443205e-02 
    58.5                5.055277e-03 5.055681e-03 5.772995e-03 1.480923e-03 7.772273e-03 5.919137e-06 5.051103e-03 1.517302e-03 1.516721e-03 1.207200e-02 1.416011e-02 1.366010e-02 
    59.5                4.819054e-03 4.818198e-03 5.524818e-03 1.318752e-03 7.381912e-03 5.544095e-06 4.814239e-03 1.382579e-03 1.382168e-03 1.137716e-02 1.347556e-02 1.296984e-02 
    60.5                4.410895e-03 4.417896e-03 5.046798e-03 1.134401e-03 6.684165e-03 5.084515e-06 4.414214e-03 1.211949e-03 1.211497e-03 1.023588e-02 1.229995e-02 1.182311e-02 
    61.5                3.983489e-03 3.985785e-03 4.412959e-03 9.447074e-04 5.814026e-03 4.503346e-06 3.982488e-03 1.052544e-03 1.052065e-03 8.839454e-03 1.093471e-02 1.051036e-02 
    62.5                3.261892e-03 3.255750e-03 3.629039e-03 7.078446e-04 4.731447e-03 3.762895e-06 3.253549e-03 8.749292e-04 8.744275e-04 7.157722e-03 8.937086e-03 8.575358e-03 
    63.5                2.669267e-03 2.669623e-03 2.967091e-03 5.514472e-04 3.852165e-03 3.001962e-06 2.667588e-03 7.064911e-04 7.061920e-04 5.792939e-03 7.300016e-03 6.997902e-03 
    64.5                2.134008e-03 2.133585e-03 2.379644e-03 4.129098e-04 3.070740e-03 2.435244e-06 2.131932e-03 5.421448e-04 5.419175e-04 4.590069e-03 5.833100e-03 5.583464e-03 
    65.5                1.680560e-03 1.679304e-03 1.822084e-03 3.002035e-04 2.339081e-03 1.903637e-06 1.678155e-03 3.984128e-04 3.982335e-04 3.477189e-03 4.534326e-03 4.341781e-03 
    66.5                1.221876e-03 1.219520e-03 1.298401e-03 2.042259e-04 1.659778e-03 1.407812e-06 1.218900e-03 2.689135e-04 2.687721e-04 2.453578e-03 3.267078e-03 3.128040e-03 
    67.5                8.022740e-04 8.016051e-04 8.345359e-04 1.259161e-04 1.060829e-03 9.560595e-07 8.012812e-04 1.614708e-04 1.614022e-04 1.556850e-03 2.127689e-03 2.036960e-03 
    68.5                4.819004e-04 4.821340e-04 4.706931e-04 6.711302e-05 5.953702e-04 5.954077e-07 4.819757e-04 8.232986e-05 8.229256e-05 8.677928e-04 1.248737e-03 1.197674e-03 
    69.5                2.314001e-04 2.306563e-04 2.088580e-04 2.887576e-05 2.627940e-04 3.084947e-07 2.307062e-04 3.278050e-05 3.275793e-05 3.802678e-04 5.832898e-04 5.608511e-04 
    70.5                7.492134e-05 7.454082e-05 5.359373e-05 8.979302e-06 6.779345e-05 1.244487e-07 7.452975e-05 8.313718e-06 8.305014e-06 9.867482e-05 1.778937e-04 1.726124e-04 
    71.5                1.237223e-05 1.228092e-05 7.127402e-06 1.206659e-06 8.938364e-06 2.530270e-08 1.227335e-05 1.112439e-06 1.109999e-06 1.291079e-05 2.801018e-05 2.735280e-05 
    72.5                7.333146e-07 7.197999e-07 1.572582e-07 4.142836e-08 1.971589e-07 2.593475e-09 7.179757e-07 3.564657e-08 3.538399e-08 2.999922e-07 1.478652e-06 1.474357e-06 
    73.5                0.000000e+00 0.000000e+00 0.000000e+00 0.000000e+00 0.000000e+00 0.000000e+00 0.000000e+00 0.000000e+00 0.000000e+00 0.000000e+00 0.000000e+00 0.000000e+00 
    74.5                0.000000e+00 0.000000e+00 0.000000e+00 0.000000e+00 0.000000e+00 0.000000e+00 0.000000e+00 0.000000e+00 0.000000e+00 0.000000e+00 0.000000e+00 0.000000e+00 
    75.5                0.000000e+00 0.000000e+00 0.000000e+00 0.000000e+00 0.000000e+00 0.000000e+00 0.000000e+00 0.000000e+00 0.000000e+00 0.000000e+00 0.000000e+00 0.000000e+00 
    76.5                0.000000e+00 0.000000e+00 0.000000e+00 0.000000e+00 0.000000e+00 0.000000e+00 0.000000e+00 0.000000e+00 0.000000e+00 0.000000e+00 0.000000e+00 0.000000e+00 
    77.5                0.000000e+00 0.000000e+00 0.000000e+00 0.000000e+00 0.000000e+00 0.000000e+00 0.000000e+00 0.000000e+00 0.000000e+00 0.000000e+00 0.000000e+00 0.000000e+00 
    78.5                0.000000e+00 0.000000e+00 0.000000e+00 0.000000e+00 0.000000e+00 0.000000e+00 0.000000e+00 0.000000e+00 0.000000e+00 0.000000e+00 0.000000e+00 0.000000e+00 
    79.5                0.000000e+00 0.000000e+00 0.000000e+00 0.000000e+00 0.000000e+00 0.000000e+00 0.000000e+00 0.000000e+00 0.000000e+00 0.000000e+00 0.000000e+00 0.000000e+00 


