# 80 rows of flux data
# 12 columns of flux data
# 
# total cross-sectional flux  2.398837e+00 /m^2/yr
#
#                             +x ram      -x wake      +y port -y starboard    +z zenith     -z nadir        Earth          Sun     anti-Sun      rot (x)      rot (y)      rot (z) 
# average speed (km/s)         24.72        24.72        22.76        25.79        20.66        27.76        24.72        25.11        25.11        24.13        24.14        24.73 
# total flux (#/m2/yr)  7.329559e-01 7.328418e-01 5.112746e-01 9.538333e-01 4.574673e-01 2.727552e-03 7.277529e-01 1.053012e+00 1.053151e+00 1.623129e+00 1.628443e+00 2.302055e+00 
# velocity (km/s)
     0.5                0.000000e+00 0.000000e+00 0.000000e+00 0.000000e+00 0.000000e+00 0.000000e+00 0.000000e+00 0.000000e+00 0.000000e+00 0.000000e+00 0.000000e+00 0.000000e+00 
     1.5                0.000000e+00 0.000000e+00 0.000000e+00 0.000000e+00 0.000000e+00 0.000000e+00 0.000000e+00 0.000000e+00 0.000000e+00 0.000000e+00 0.000000e+00 0.000000e+00 
     2.5                1.206891e-06 1.178314e-06 5.666972e-06 0.000000e+00 2.073347e-06 1.017256e-09 1.211077e-06 8.468403e-07 8.456765e-07 6.090369e-06 3.376671e-06 6.372776e-06 
     3.5                7.193714e-05 7.171373e-05 1.418032e-04 6.411081e-06 6.335678e-05 6.241772e-08 7.174345e-05 4.976236e-05 4.979911e-05 1.699293e-04 1.670608e-04 2.299787e-04 
     4.5                3.767742e-04 3.769975e-04 5.685017e-04 1.895199e-04 3.534317e-04 6.610911e-07 3.755412e-04 2.749298e-04 2.750192e-04 8.915536e-04 8.918549e-04 1.186637e-03 
     5.5                1.168197e-03 1.168467e-03 1.471667e-03 7.441041e-04 1.220983e-03 1.858342e-06 1.164508e-03 9.278110e-04 9.274697e-04 2.730678e-03 2.837478e-03 3.579350e-03 
     6.5                2.536560e-03 2.537357e-03 2.729450e-03 2.261665e-03 2.829518e-03 4.309533e-06 2.528669e-03 2.179111e-03 2.178772e-03 6.206258e-03 6.266229e-03 7.904269e-03 
     7.5                4.441390e-03 4.443024e-03 4.801495e-03 4.098313e-03 5.154122e-03 7.940774e-06 4.427173e-03 4.043728e-03 4.043475e-03 1.114960e-02 1.112941e-02 1.396520e-02 
     8.5                7.113188e-03 7.111537e-03 7.131864e-03 6.824022e-03 8.097800e-03 1.253094e-05 7.088907e-03 6.657947e-03 6.658276e-03 1.747222e-02 1.770879e-02 2.212848e-02 
     9.5                9.874846e-03 9.874091e-03 9.074085e-03 1.029706e-02 1.147245e-02 1.696550e-05 9.836887e-03 9.803146e-03 9.802547e-03 2.439176e-02 2.471143e-02 3.072763e-02 
    10.5                1.227535e-02 1.227374e-02 1.100983e-02 1.371939e-02 1.495095e-02 2.111202e-05 1.221936e-02 1.339603e-02 1.339611e-02 3.137180e-02 3.120645e-02 3.870532e-02 
    11.5                1.442333e-02 1.442393e-02 1.255133e-02 1.611084e-02 1.774179e-02 2.626414e-05 1.434643e-02 1.694054e-02 1.694038e-02 3.675424e-02 3.688515e-02 4.517047e-02 
    12.5                1.608478e-02 1.608643e-02 1.371405e-02 1.860122e-02 1.958427e-02 3.051271e-05 1.598797e-02 2.016280e-02 2.016476e-02 4.122308e-02 4.115100e-02 5.065387e-02 
    13.5                1.766493e-02 1.766453e-02 1.543160e-02 2.020794e-02 2.084679e-02 3.492319e-05 1.754812e-02 2.322726e-02 2.322755e-02 4.508403e-02 4.483778e-02 5.572889e-02 
    14.5                1.957378e-02 1.957365e-02 1.691183e-02 2.220152e-02 2.171785e-02 4.057476e-05 1.943505e-02 2.654235e-02 2.654273e-02 4.876911e-02 4.881802e-02 6.146359e-02 
    15.5                2.134510e-02 2.134393e-02 1.819575e-02 2.444092e-02 2.200535e-02 4.679727e-05 2.118871e-02 2.973510e-02 2.973722e-02 5.207224e-02 5.217921e-02 6.702159e-02 
    16.5                2.309030e-02 2.308764e-02 1.932282e-02 2.691160e-02 2.225711e-02 5.372695e-05 2.291552e-02 3.279275e-02 3.279329e-02 5.549125e-02 5.547861e-02 7.257414e-02 
    17.5                2.453749e-02 2.453766e-02 2.036291e-02 2.879592e-02 2.199060e-02 6.015137e-05 2.434655e-02 3.551948e-02 3.552219e-02 5.793063e-02 5.793773e-02 7.714663e-02 
    18.5                2.589028e-02 2.588923e-02 2.106267e-02 3.070418e-02 2.147162e-02 6.733935e-05 2.568534e-02 3.804628e-02 3.804736e-02 5.995382e-02 6.004821e-02 8.132604e-02 
    19.5                2.691621e-02 2.691414e-02 2.141966e-02 3.247946e-02 2.105828e-02 7.428358e-05 2.669972e-02 4.007526e-02 4.007795e-02 6.164162e-02 6.167169e-02 8.460795e-02 
    20.5                2.768226e-02 2.767849e-02 2.172907e-02 3.368034e-02 2.024508e-02 8.111451e-05 2.745735e-02 4.157796e-02 4.158108e-02 6.257260e-02 6.265262e-02 8.700069e-02 
    21.5                2.862045e-02 2.861707e-02 2.237986e-02 3.481834e-02 1.940012e-02 8.848977e-05 2.838684e-02 4.317234e-02 4.317615e-02 6.371580e-02 6.389799e-02 8.987848e-02 
    22.5                2.969615e-02 2.969217e-02 2.277772e-02 3.644067e-02 1.897549e-02 9.436496e-05 2.945406e-02 4.494673e-02 4.495137e-02 6.539613e-02 6.568585e-02 9.315243e-02 
    23.5                3.025701e-02 3.025419e-02 2.270720e-02 3.779714e-02 1.816855e-02 1.007983e-04 3.001144e-02 4.597866e-02 4.598175e-02 6.611178e-02 6.627151e-02 9.504158e-02 
    24.5                3.052295e-02 3.051858e-02 2.251278e-02 3.846524e-02 1.720257e-02 1.074894e-04 3.027625e-02 4.639514e-02 4.640057e-02 6.604748e-02 6.628886e-02 9.583204e-02 
    25.5                3.071542e-02 3.071143e-02 2.210449e-02 3.918821e-02 1.611912e-02 1.134024e-04 3.047061e-02 4.663078e-02 4.663522e-02 6.581584e-02 6.612988e-02 9.638321e-02 
    26.5                3.051666e-02 3.051153e-02 2.125261e-02 3.965477e-02 1.499917e-02 1.175927e-04 3.027667e-02 4.628779e-02 4.629357e-02 6.490814e-02 6.524332e-02 9.576556e-02 
    27.5                2.989632e-02 2.989085e-02 2.039689e-02 3.951370e-02 1.380181e-02 1.212236e-04 2.966439e-02 4.535573e-02 4.536212e-02 6.342669e-02 6.352460e-02 9.400986e-02 
    28.5                2.916609e-02 2.916057e-02 1.939474e-02 3.882371e-02 1.263315e-02 1.230408e-04 2.894361e-02 4.403485e-02 4.404082e-02 6.129266e-02 6.163113e-02 9.153259e-02 
    29.5                2.824858e-02 2.824224e-02 1.816269e-02 3.830815e-02 1.150125e-02 1.247512e-04 2.803719e-02 4.253651e-02 4.254319e-02 5.913670e-02 5.938360e-02 8.871790e-02 
    30.5                2.702432e-02 2.701855e-02 1.686462e-02 3.712482e-02 1.031827e-02 1.246556e-04 2.682680e-02 4.052755e-02 4.053333e-02 5.625905e-02 5.655234e-02 8.485038e-02 
    31.5                2.560247e-02 2.559720e-02 1.528565e-02 3.580804e-02 9.120852e-03 1.247713e-04 2.541937e-02 3.819318e-02 3.820013e-02 5.298712e-02 5.333625e-02 8.034438e-02 
    32.5                2.406089e-02 2.405442e-02 1.369122e-02 3.432058e-02 7.972218e-03 1.232290e-04 2.389336e-02 3.567726e-02 3.568511e-02 4.956749e-02 4.991792e-02 7.550450e-02 
    33.5                2.219047e-02 2.218375e-02 1.204976e-02 3.237262e-02 6.915626e-03 1.170482e-04 2.204042e-02 3.272399e-02 3.273098e-02 4.569592e-02 4.588634e-02 6.974219e-02 
    34.5                2.002908e-02 2.002377e-02 1.033561e-02 2.977370e-02 5.896529e-03 1.098273e-04 1.989837e-02 2.933340e-02 2.933941e-02 4.113980e-02 4.130913e-02 6.296245e-02 
    35.5                1.786099e-02 1.785564e-02 8.639990e-03 2.707136e-02 4.931576e-03 1.028095e-04 1.774801e-02 2.594951e-02 2.595730e-02 3.652021e-02 3.674128e-02 5.610681e-02 
    36.5                1.574557e-02 1.574073e-02 7.070902e-03 2.433803e-02 4.044287e-03 9.482851e-05 1.564967e-02 2.266273e-02 2.266768e-02 3.202407e-02 3.230043e-02 4.940890e-02 
    37.5                1.367629e-02 1.367154e-02 5.647308e-03 2.160726e-02 3.280059e-03 8.489591e-05 1.359605e-02 1.949705e-02 1.950354e-02 2.771525e-02 2.798899e-02 4.289202e-02 
    38.5                1.159059e-02 1.158608e-02 4.312864e-03 1.875099e-02 2.612246e-03 7.370682e-05 1.152533e-02 1.636284e-02 1.636880e-02 2.340158e-02 2.367351e-02 3.632755e-02 
    39.5                9.526688e-03 9.523320e-03 3.110983e-03 1.587115e-02 2.032392e-03 6.133340e-05 9.475548e-03 1.332557e-02 1.333049e-02 1.922117e-02 1.942802e-02 2.988125e-02 
    40.5                7.503115e-03 7.499262e-03 2.115735e-03 1.287951e-02 1.524552e-03 4.819525e-05 7.464845e-03 1.039982e-02 1.040434e-02 1.515778e-02 1.528026e-02 2.357411e-02 
    41.5                5.620607e-03 5.618247e-03 1.328150e-03 9.949830e-03 1.098563e-03 3.548588e-05 5.593445e-03 7.724463e-03 7.727722e-03 1.138371e-02 1.143575e-02 1.769953e-02 
    42.5                4.023598e-03 4.022168e-03 7.811962e-04 7.286509e-03 7.577013e-04 2.458132e-05 4.005077e-03 5.470972e-03 5.473546e-03 8.133349e-03 8.179111e-03 1.267445e-02 
    43.5                2.723335e-03 2.721448e-03 4.178699e-04 5.080503e-03 5.041682e-04 1.556573e-05 2.711521e-03 3.673912e-03 3.676165e-03 5.537828e-03 5.532186e-03 8.611256e-03 
    44.5                1.662464e-03 1.661808e-03 1.928462e-04 3.255420e-03 3.112595e-04 8.629239e-06 1.655838e-03 2.248070e-03 2.249438e-03 3.470209e-03 3.378059e-03 5.330611e-03 
    45.5                8.841868e-04 8.837549e-04 7.652569e-05 1.828903e-03 1.701192e-04 3.962097e-06 8.810490e-04 1.205146e-03 1.205752e-03 1.916300e-03 1.797303e-03 2.891087e-03 
    46.5                3.789786e-04 3.789008e-04 2.269851e-05 8.548380e-04 7.827636e-05 1.361143e-06 3.778781e-04 5.302952e-04 5.307614e-04 8.821481e-04 7.715710e-04 1.286106e-03 
    47.5                1.170650e-04 1.171344e-04 4.979254e-06 2.939434e-04 2.663931e-05 3.335027e-07 1.168272e-04 1.711819e-04 1.712882e-04 3.003897e-04 2.390335e-04 4.194066e-04 
    48.5                2.483854e-05 2.488224e-05 6.456169e-07 7.080510e-05 6.369542e-06 4.838187e-08 2.481400e-05 3.848581e-05 3.852300e-05 7.178167e-05 5.091374e-05 9.523714e-05 
    49.5                2.804421e-06 2.823471e-06 1.400835e-08 9.816181e-06 8.785254e-07 1.526501e-09 2.807502e-06 4.868364e-06 4.877374e-06 9.873386e-06 5.801348e-06 1.212276e-05 
    50.5                5.317312e-08 5.414527e-08 0.000000e+00 2.812559e-07 2.507590e-08 0.000000e+00 5.361895e-08 1.240972e-07 1.236222e-07 2.824421e-07 1.129039e-07 3.092106e-07 
    51.5                0.000000e+00 0.000000e+00 0.000000e+00 0.000000e+00 0.000000e+00 0.000000e+00 0.000000e+00 0.000000e+00 0.000000e+00 0.000000e+00 0.000000e+00 0.000000e+00 
    52.5                0.000000e+00 0.000000e+00 0.000000e+00 0.000000e+00 0.000000e+00 0.000000e+00 0.000000e+00 0.000000e+00 0.000000e+00 0.000000e+00 0.000000e+00 0.000000e+00 
    53.5                0.000000e+00 0.000000e+00 0.000000e+00 0.000000e+00 0.000000e+00 0.000000e+00 0.000000e+00 0.000000e+00 0.000000e+00 0.000000e+00 0.000000e+00 0.000000e+00 
    54.5                0.000000e+00 0.000000e+00 0.000000e+00 0.000000e+00 0.000000e+00 0.000000e+00 0.000000e+00 0.000000e+00 0.000000e+00 0.000000e+00 0.000000e+00 0.000000e+00 
    55.5                0.000000e+00 0.000000e+00 0.000000e+00 0.000000e+00 0.000000e+00 0.000000e+00 0.000000e+00 0.000000e+00 0.000000e+00 0.000000e+00 0.000000e+00 0.000000e+00 
    56.5                0.000000e+00 0.000000e+00 0.000000e+00 0.000000e+00 0.000000e+00 0.000000e+00 0.000000e+00 0.000000e+00 0.000000e+00 0.000000e+00 0.000000e+00 0.000000e+00 
    57.5                0.000000e+00 0.000000e+00 0.000000e+00 0.000000e+00 0.000000e+00 0.000000e+00 0.000000e+00 0.000000e+00 0.000000e+00 0.000000e+00 0.000000e+00 0.000000e+00 
    58.5                0.000000e+00 0.000000e+00 0.000000e+00 0.000000e+00 0.000000e+00 0.000000e+00 0.000000e+00 0.000000e+00 0.000000e+00 0.000000e+00 0.000000e+00 0.000000e+00 
    59.5                0.000000e+00 0.000000e+00 0.000000e+00 0.000000e+00 0.000000e+00 0.000000e+00 0.000000e+00 0.000000e+00 0.000000e+00 0.000000e+00 0.000000e+00 0.000000e+00 
    60.5                0.000000e+00 0.000000e+00 0.000000e+00 0.000000e+00 0.000000e+00 0.000000e+00 0.000000e+00 0.000000e+00 0.000000e+00 0.000000e+00 0.000000e+00 0.000000e+00 
    61.5                0.000000e+00 0.000000e+00 0.000000e+00 0.000000e+00 0.000000e+00 0.000000e+00 0.000000e+00 0.000000e+00 0.000000e+00 0.000000e+00 0.000000e+00 0.000000e+00 
    62.5                0.000000e+00 0.000000e+00 0.000000e+00 0.000000e+00 0.000000e+00 0.000000e+00 0.000000e+00 0.000000e+00 0.000000e+00 0.000000e+00 0.000000e+00 0.000000e+00 
    63.5                0.000000e+00 0.000000e+00 0.000000e+00 0.000000e+00 0.000000e+00 0.000000e+00 0.000000e+00 0.000000e+00 0.000000e+00 0.000000e+00 0.000000e+00 0.000000e+00 
    64.5                0.000000e+00 0.000000e+00 0.000000e+00 0.000000e+00 0.000000e+00 0.000000e+00 0.000000e+00 0.000000e+00 0.000000e+00 0.000000e+00 0.000000e+00 0.000000e+00 
    65.5                0.000000e+00 0.000000e+00 0.000000e+00 0.000000e+00 0.000000e+00 0.000000e+00 0.000000e+00 0.000000e+00 0.000000e+00 0.000000e+00 0.000000e+00 0.000000e+00 
    66.5                0.000000e+00 0.000000e+00 0.000000e+00 0.000000e+00 0.000000e+00 0.000000e+00 0.000000e+00 0.000000e+00 0.000000e+00 0.000000e+00 0.000000e+00 0.000000e+00 
    67.5                0.000000e+00 0.000000e+00 0.000000e+00 0.000000e+00 0.000000e+00 0.000000e+00 0.000000e+00 0.000000e+00 0.000000e+00 0.000000e+00 0.000000e+00 0.000000e+00 
    68.5                0.000000e+00 0.000000e+00 0.000000e+00 0.000000e+00 0.000000e+00 0.000000e+00 0.000000e+00 0.000000e+00 0.000000e+00 0.000000e+00 0.000000e+00 0.000000e+00 
    69.5                0.000000e+00 0.000000e+00 0.000000e+00 0.000000e+00 0.000000e+00 0.000000e+00 0.000000e+00 0.000000e+00 0.000000e+00 0.000000e+00 0.000000e+00 0.000000e+00 
    70.5                0.000000e+00 0.000000e+00 0.000000e+00 0.000000e+00 0.000000e+00 0.000000e+00 0.000000e+00 0.000000e+00 0.000000e+00 0.000000e+00 0.000000e+00 0.000000e+00 
    71.5                0.000000e+00 0.000000e+00 0.000000e+00 0.000000e+00 0.000000e+00 0.000000e+00 0.000000e+00 0.000000e+00 0.000000e+00 0.000000e+00 0.000000e+00 0.000000e+00 
    72.5                0.000000e+00 0.000000e+00 0.000000e+00 0.000000e+00 0.000000e+00 0.000000e+00 0.000000e+00 0.000000e+00 0.000000e+00 0.000000e+00 0.000000e+00 0.000000e+00 
    73.5                0.000000e+00 0.000000e+00 0.000000e+00 0.000000e+00 0.000000e+00 0.000000e+00 0.000000e+00 0.000000e+00 0.000000e+00 0.000000e+00 0.000000e+00 0.000000e+00 
    74.5                0.000000e+00 0.000000e+00 0.000000e+00 0.000000e+00 0.000000e+00 0.000000e+00 0.000000e+00 0.000000e+00 0.000000e+00 0.000000e+00 0.000000e+00 0.000000e+00 
    75.5                0.000000e+00 0.000000e+00 0.000000e+00 0.000000e+00 0.000000e+00 0.000000e+00 0.000000e+00 0.000000e+00 0.000000e+00 0.000000e+00 0.000000e+00 0.000000e+00 
    76.5                0.000000e+00 0.000000e+00 0.000000e+00 0.000000e+00 0.000000e+00 0.000000e+00 0.000000e+00 0.000000e+00 0.000000e+00 0.000000e+00 0.000000e+00 0.000000e+00 
    77.5                0.000000e+00 0.000000e+00 0.000000e+00 0.000000e+00 0.000000e+00 0.000000e+00 0.000000e+00 0.000000e+00 0.000000e+00 0.000000e+00 0.000000e+00 0.000000e+00 
    78.5                0.000000e+00 0.000000e+00 0.000000e+00 0.000000e+00 0.000000e+00 0.000000e+00 0.000000e+00 0.000000e+00 0.000000e+00 0.000000e+00 0.000000e+00 0.000000e+00 
    79.5                0.000000e+00 0.000000e+00 0.000000e+00 0.000000e+00 0.000000e+00 0.000000e+00 0.000000e+00 0.000000e+00 0.000000e+00 0.000000e+00 0.000000e+00 0.000000e+00 


