# 80 rows of flux data
# 12 columns of flux data
# 
# total cross-sectional flux  2.220765e+00 /m^2/yr
#
#                             +x ram      -x wake      +y port -y starboard    +z zenith     -z nadir        Earth          Sun     anti-Sun      rot (x)      rot (y)      rot (z) 
# average speed (km/s)         24.69        23.86        25.12        18.59        22.92        24.24        18.98        24.66        24.64        23.56        23.95        24.20 
# total flux (#/m2/yr)  7.419622e-01 6.325472e-01 1.027882e+00 1.975742e-01 6.811297e-01 1.179419e-03 1.456071e-01 9.763308e-01 9.651215e-01 1.484210e+00 1.667919e+00 2.045770e+00 
# velocity (km/s)
     0.5                0.000000e+00 0.000000e+00 0.000000e+00 0.000000e+00 0.000000e+00 0.000000e+00 0.000000e+00 0.000000e+00 0.000000e+00 0.000000e+00 0.000000e+00 0.000000e+00 
     1.5                0.000000e+00 0.000000e+00 0.000000e+00 0.000000e+00 0.000000e+00 0.000000e+00 0.000000e+00 0.000000e+00 0.000000e+00 0.000000e+00 0.000000e+00 0.000000e+00 
     2.5                0.000000e+00 5.653742e-06 1.022360e-06 1.208685e-06 2.392688e-06 4.113511e-10 7.705087e-07 1.333287e-06 4.741176e-07 3.552745e-06 6.257448e-06 6.276587e-06 
     3.5                3.974132e-06 1.390427e-04 7.174106e-05 4.084466e-05 7.870588e-05 7.945326e-08 2.993204e-05 5.622511e-05 3.512814e-05 1.485491e-04 1.759113e-04 2.009431e-04 
     4.5                1.494644e-04 5.915692e-04 4.259033e-04 2.140672e-04 4.325833e-04 5.039024e-07 1.550205e-04 2.931731e-04 2.217161e-04 8.390293e-04 9.325024e-04 1.084741e-03 
     5.5                6.563372e-04 1.549609e-03 1.404418e-03 7.199529e-04 1.439228e-03 1.682714e-06 5.170092e-04 9.826440e-04 8.456529e-04 2.806031e-03 2.887056e-03 3.402866e-03 
     6.5                2.058578e-03 2.878203e-03 3.037829e-03 1.625692e-03 3.203006e-03 3.766761e-06 1.166050e-03 2.233814e-03 2.073025e-03 6.203019e-03 6.446846e-03 7.543769e-03 
     7.5                3.756337e-03 5.067032e-03 5.284499e-03 2.910404e-03 5.791993e-03 6.775954e-06 2.058263e-03 4.060620e-03 3.935953e-03 1.103241e-02 1.157107e-02 1.336744e-02 
     8.5                6.281581e-03 7.516486e-03 8.548277e-03 4.540877e-03 9.086851e-03 1.078718e-05 3.233425e-03 6.584592e-03 6.551658e-03 1.750267e-02 1.809863e-02 2.111512e-02 
     9.5                9.590768e-03 9.527726e-03 1.188540e-02 6.402494e-03 1.265531e-02 1.578160e-05 4.567361e-03 9.702075e-03 9.706255e-03 2.446706e-02 2.515594e-02 2.938648e-02 
    10.5                1.283507e-02 1.155594e-02 1.446744e-02 8.208832e-03 1.622539e-02 1.935083e-05 5.777563e-03 1.324342e-02 1.315319e-02 3.073166e-02 3.214613e-02 3.697344e-02 
    11.5                1.505220e-02 1.326571e-02 1.701380e-02 9.586389e-03 1.928300e-02 2.217936e-05 6.667216e-03 1.673476e-02 1.657020e-02 3.621602e-02 3.766842e-02 4.315310e-02 
    12.5                1.725887e-02 1.455357e-02 1.913703e-02 1.042704e-02 2.138435e-02 2.543404e-05 7.187141e-03 1.984359e-02 1.967611e-02 4.021530e-02 4.215260e-02 4.822659e-02 
    13.5                1.856409e-02 1.655029e-02 2.144537e-02 1.098460e-02 2.312313e-02 2.843360e-05 7.555422e-03 2.284197e-02 2.267115e-02 4.382746e-02 4.625849e-02 5.306149e-02 
    14.5                2.027988e-02 1.830246e-02 2.442282e-02 1.134754e-02 2.462338e-02 3.214385e-05 7.870829e-03 2.606401e-02 2.586407e-02 4.762137e-02 5.034317e-02 5.841316e-02 
    15.5                2.208168e-02 1.992264e-02 2.746778e-02 1.134240e-02 2.562498e-02 3.607526e-05 7.954352e-03 2.915402e-02 2.892700e-02 5.077514e-02 5.404206e-02 6.349642e-02 
    16.5                2.399833e-02 2.137769e-02 3.035114e-02 1.126286e-02 2.660037e-02 3.935355e-05 7.977554e-03 3.203119e-02 3.178064e-02 5.368811e-02 5.768200e-02 6.834488e-02 
    17.5                2.539506e-02 2.278497e-02 3.296985e-02 1.094254e-02 2.711035e-02 4.248925e-05 7.847639e-03 3.462568e-02 3.435982e-02 5.584970e-02 6.047758e-02 7.236407e-02 
    18.5                2.668754e-02 2.380885e-02 3.548873e-02 1.047299e-02 2.734690e-02 4.525003e-05 7.627980e-03 3.691443e-02 3.663120e-02 5.759165e-02 6.269221e-02 7.580365e-02 
    19.5                2.791097e-02 2.457579e-02 3.739526e-02 1.008531e-02 2.753786e-02 4.744281e-05 7.428644e-03 3.874839e-02 3.845238e-02 5.888268e-02 6.460015e-02 7.857739e-02 
    20.5                2.855563e-02 2.528874e-02 3.900228e-02 9.439407e-03 2.739430e-02 4.899490e-05 7.015240e-03 4.002446e-02 3.970511e-02 5.944806e-02 6.572439e-02 8.040742e-02 
    21.5                2.904280e-02 2.633263e-02 4.082896e-02 8.792798e-03 2.735708e-02 5.016286e-05 6.624061e-03 4.139883e-02 4.104475e-02 6.025178e-02 6.704565e-02 8.254570e-02 
    22.5                2.998666e-02 2.699643e-02 4.276783e-02 8.323669e-03 2.761477e-02 5.186277e-05 6.318065e-03 4.284228e-02 4.245596e-02 6.153036e-02 6.869242e-02 8.497750e-02 
    23.5                3.079555e-02 2.726312e-02 4.411018e-02 7.656061e-03 2.736569e-02 5.301465e-05 5.888552e-03 4.367280e-02 4.325508e-02 6.179119e-02 6.949265e-02 8.636058e-02 
    24.5                3.097726e-02 2.741310e-02 4.492360e-02 6.919984e-03 2.694032e-02 5.304371e-05 5.369621e-03 4.391053e-02 4.345892e-02 6.142299e-02 6.953493e-02 8.669054e-02 
    25.5                3.104101e-02 2.730168e-02 4.553690e-02 6.116580e-03 2.638998e-02 5.253377e-05 4.794308e-03 4.383673e-02 4.335128e-02 6.072967e-02 6.916446e-02 8.651864e-02 
    26.5                3.091524e-02 2.661197e-02 4.542960e-02 5.360850e-03 2.560749e-02 5.124808e-05 4.233738e-03 4.316301e-02 4.265805e-02 5.933296e-02 6.795388e-02 8.521632e-02 
    27.5                3.028126e-02 2.594191e-02 4.465891e-02 4.643470e-03 2.458362e-02 4.955244e-05 3.697849e-03 4.200233e-02 4.148774e-02 5.727197e-02 6.615573e-02 8.304093e-02 
    28.5                2.930769e-02 2.506649e-02 4.371222e-02 3.972169e-03 2.355230e-02 4.731142e-05 3.182860e-03 4.054370e-02 4.001841e-02 5.511104e-02 6.385478e-02 8.032555e-02 
    29.5                2.840216e-02 2.390599e-02 4.235447e-02 3.364415e-03 2.236197e-02 4.524654e-05 2.724071e-03 3.883834e-02 3.831240e-02 5.257905e-02 6.126305e-02 7.717058e-02 
    30.5                2.710148e-02 2.260565e-02 4.054699e-02 2.759871e-03 2.102757e-02 4.235842e-05 2.252167e-03 3.672961e-02 3.621151e-02 4.958400e-02 5.808934e-02 7.324521e-02 
    31.5                2.565701e-02 2.108146e-02 3.838422e-02 2.225153e-03 1.957871e-02 3.923601e-05 1.836575e-03 3.434547e-02 3.384069e-02 4.628584e-02 5.451123e-02 6.880670e-02 
    32.5                2.399521e-02 1.932484e-02 3.579775e-02 1.764828e-03 1.801284e-02 3.581063e-05 1.473162e-03 3.163082e-02 3.115132e-02 4.264644e-02 5.044695e-02 6.373520e-02 
    33.5                2.214722e-02 1.735263e-02 3.274803e-02 1.392475e-03 1.629817e-02 3.234884e-05 1.177916e-03 2.862052e-02 2.817450e-02 3.863461e-02 4.592721e-02 5.804759e-02 
    34.5                2.000112e-02 1.538272e-02 2.942255e-02 1.078309e-03 1.450957e-02 2.867957e-05 9.250957e-04 2.543947e-02 2.503544e-02 3.441678e-02 4.109052e-02 5.195217e-02 
    35.5                1.781560e-02 1.342185e-02 2.603332e-02 8.171076e-04 1.272954e-02 2.513062e-05 7.135987e-04 2.227158e-02 2.191100e-02 3.021126e-02 3.622922e-02 4.582158e-02 
    36.5                1.560632e-02 1.151912e-02 2.268451e-02 5.969189e-04 1.100148e-02 2.161426e-05 5.342573e-04 1.917539e-02 1.885909e-02 2.611974e-02 3.142877e-02 3.977675e-02 
    37.5                1.349014e-02 9.675976e-03 1.940697e-02 4.281394e-04 9.348726e-03 1.832126e-05 3.940443e-04 1.621816e-02 1.594795e-02 2.219756e-02 2.681323e-02 3.394526e-02 
    38.5                1.141735e-02 7.861724e-03 1.619608e-02 2.984555e-04 7.756053e-03 1.516654e-05 2.844472e-04 1.337282e-02 1.314883e-02 1.841705e-02 2.230108e-02 2.825148e-02 
    39.5                9.432883e-03 6.108507e-03 1.305068e-02 2.018262e-04 6.219361e-03 1.218819e-05 2.004781e-04 1.065672e-02 1.047913e-02 1.476781e-02 1.795755e-02 2.274723e-02 
    40.5                7.476925e-03 4.512901e-03 1.004687e-02 1.301260e-04 4.768602e-03 9.407928e-06 1.357275e-04 8.117952e-03 7.984654e-03 1.132103e-02 1.383708e-02 1.751994e-02 
    41.5                5.657295e-03 3.182201e-03 7.366330e-03 8.002553e-05 3.484892e-03 6.944153e-06 8.840609e-05 5.899546e-03 5.804916e-03 8.271133e-03 1.018337e-02 1.287759e-02 
    42.5                4.065016e-03 2.122803e-03 5.147571e-03 4.689752e-05 2.428745e-03 4.866327e-06 5.523139e-05 4.077937e-03 4.014102e-03 5.762518e-03 7.122530e-03 9.003981e-03 
    43.5                2.796200e-03 1.270038e-03 3.369753e-03 2.589609e-05 1.586487e-03 3.204219e-06 3.274915e-05 2.642340e-03 2.603018e-03 3.763101e-03 4.675107e-03 5.905108e-03 
    44.5                1.776125e-03 6.597086e-04 1.982242e-03 1.335849e-05 9.318133e-04 1.945591e-06 1.824431e-05 1.549831e-03 1.529400e-03 2.209822e-03 2.789633e-03 3.508759e-03 
    45.5                9.921431e-04 2.729313e-04 1.003671e-03 6.063716e-06 4.712062e-04 1.027450e-06 8.978793e-06 7.858158e-04 7.769976e-04 1.117443e-03 1.441312e-03 1.802261e-03 
    46.5                4.637176e-04 7.987230e-05 4.056487e-04 2.387037e-06 1.902853e-04 4.616258e-07 3.822369e-06 3.243879e-04 3.220819e-04 4.513977e-04 6.122049e-04 7.549049e-04 
    47.5                1.601826e-04 1.553426e-05 1.192430e-04 7.493864e-07 5.591112e-05 1.606957e-07 1.278369e-06 9.946820e-05 9.937111e-05 1.327245e-04 1.947661e-04 2.352382e-04 
    48.5                3.873098e-05 1.378366e-06 2.400974e-05 1.643020e-07 1.125009e-05 3.920145e-08 2.965489e-07 2.129738e-05 2.143912e-05 2.673528e-05 4.357206e-05 5.125938e-05 
    49.5                5.410325e-06 1.187912e-08 2.586338e-06 2.273427e-08 1.211904e-06 5.853982e-09 4.313656e-08 2.617288e-06 2.667721e-06 2.886368e-06 5.706487e-06 6.424191e-06 
    50.5                1.573722e-07 0.000000e+00 4.953921e-08 7.085912e-10 2.323585e-08 1.817860e-10 1.462573e-09 6.758478e-08 6.952545e-08 5.565108e-08 1.601960e-07 1.693620e-07 
    51.5                0.000000e+00 0.000000e+00 0.000000e+00 0.000000e+00 0.000000e+00 0.000000e+00 0.000000e+00 0.000000e+00 0.000000e+00 0.000000e+00 0.000000e+00 0.000000e+00 
    52.5                0.000000e+00 0.000000e+00 0.000000e+00 0.000000e+00 0.000000e+00 0.000000e+00 0.000000e+00 0.000000e+00 0.000000e+00 0.000000e+00 0.000000e+00 0.000000e+00 
    53.5                0.000000e+00 0.000000e+00 0.000000e+00 0.000000e+00 0.000000e+00 0.000000e+00 0.000000e+00 0.000000e+00 0.000000e+00 0.000000e+00 0.000000e+00 0.000000e+00 
    54.5                0.000000e+00 0.000000e+00 0.000000e+00 0.000000e+00 0.000000e+00 0.000000e+00 0.000000e+00 0.000000e+00 0.000000e+00 0.000000e+00 0.000000e+00 0.000000e+00 
    55.5                0.000000e+00 0.000000e+00 0.000000e+00 0.000000e+00 0.000000e+00 0.000000e+00 0.000000e+00 0.000000e+00 0.000000e+00 0.000000e+00 0.000000e+00 0.000000e+00 
    56.5                0.000000e+00 0.000000e+00 0.000000e+00 0.000000e+00 0.000000e+00 0.000000e+00 0.000000e+00 0.000000e+00 0.000000e+00 0.000000e+00 0.000000e+00 0.000000e+00 
    57.5                0.000000e+00 0.000000e+00 0.000000e+00 0.000000e+00 0.000000e+00 0.000000e+00 0.000000e+00 0.000000e+00 0.000000e+00 0.000000e+00 0.000000e+00 0.000000e+00 
    58.5                0.000000e+00 0.000000e+00 0.000000e+00 0.000000e+00 0.000000e+00 0.000000e+00 0.000000e+00 0.000000e+00 0.000000e+00 0.000000e+00 0.000000e+00 0.000000e+00 
    59.5                0.000000e+00 0.000000e+00 0.000000e+00 0.000000e+00 0.000000e+00 0.000000e+00 0.000000e+00 0.000000e+00 0.000000e+00 0.000000e+00 0.000000e+00 0.000000e+00 
    60.5                0.000000e+00 0.000000e+00 0.000000e+00 0.000000e+00 0.000000e+00 0.000000e+00 0.000000e+00 0.000000e+00 0.000000e+00 0.000000e+00 0.000000e+00 0.000000e+00 
    61.5                0.000000e+00 0.000000e+00 0.000000e+00 0.000000e+00 0.000000e+00 0.000000e+00 0.000000e+00 0.000000e+00 0.000000e+00 0.000000e+00 0.000000e+00 0.000000e+00 
    62.5                0.000000e+00 0.000000e+00 0.000000e+00 0.000000e+00 0.000000e+00 0.000000e+00 0.000000e+00 0.000000e+00 0.000000e+00 0.000000e+00 0.000000e+00 0.000000e+00 
    63.5                0.000000e+00 0.000000e+00 0.000000e+00 0.000000e+00 0.000000e+00 0.000000e+00 0.000000e+00 0.000000e+00 0.000000e+00 0.000000e+00 0.000000e+00 0.000000e+00 
    64.5                0.000000e+00 0.000000e+00 0.000000e+00 0.000000e+00 0.000000e+00 0.000000e+00 0.000000e+00 0.000000e+00 0.000000e+00 0.000000e+00 0.000000e+00 0.000000e+00 
    65.5                0.000000e+00 0.000000e+00 0.000000e+00 0.000000e+00 0.000000e+00 0.000000e+00 0.000000e+00 0.000000e+00 0.000000e+00 0.000000e+00 0.000000e+00 0.000000e+00 
    66.5                0.000000e+00 0.000000e+00 0.000000e+00 0.000000e+00 0.000000e+00 0.000000e+00 0.000000e+00 0.000000e+00 0.000000e+00 0.000000e+00 0.000000e+00 0.000000e+00 
    67.5                0.000000e+00 0.000000e+00 0.000000e+00 0.000000e+00 0.000000e+00 0.000000e+00 0.000000e+00 0.000000e+00 0.000000e+00 0.000000e+00 0.000000e+00 0.000000e+00 
    68.5                0.000000e+00 0.000000e+00 0.000000e+00 0.000000e+00 0.000000e+00 0.000000e+00 0.000000e+00 0.000000e+00 0.000000e+00 0.000000e+00 0.000000e+00 0.000000e+00 
    69.5                0.000000e+00 0.000000e+00 0.000000e+00 0.000000e+00 0.000000e+00 0.000000e+00 0.000000e+00 0.000000e+00 0.000000e+00 0.000000e+00 0.000000e+00 0.000000e+00 
    70.5                0.000000e+00 0.000000e+00 0.000000e+00 0.000000e+00 0.000000e+00 0.000000e+00 0.000000e+00 0.000000e+00 0.000000e+00 0.000000e+00 0.000000e+00 0.000000e+00 
    71.5                0.000000e+00 0.000000e+00 0.000000e+00 0.000000e+00 0.000000e+00 0.000000e+00 0.000000e+00 0.000000e+00 0.000000e+00 0.000000e+00 0.000000e+00 0.000000e+00 
    72.5                0.000000e+00 0.000000e+00 0.000000e+00 0.000000e+00 0.000000e+00 0.000000e+00 0.000000e+00 0.000000e+00 0.000000e+00 0.000000e+00 0.000000e+00 0.000000e+00 
    73.5                0.000000e+00 0.000000e+00 0.000000e+00 0.000000e+00 0.000000e+00 0.000000e+00 0.000000e+00 0.000000e+00 0.000000e+00 0.000000e+00 0.000000e+00 0.000000e+00 
    74.5                0.000000e+00 0.000000e+00 0.000000e+00 0.000000e+00 0.000000e+00 0.000000e+00 0.000000e+00 0.000000e+00 0.000000e+00 0.000000e+00 0.000000e+00 0.000000e+00 
    75.5                0.000000e+00 0.000000e+00 0.000000e+00 0.000000e+00 0.000000e+00 0.000000e+00 0.000000e+00 0.000000e+00 0.000000e+00 0.000000e+00 0.000000e+00 0.000000e+00 
    76.5                0.000000e+00 0.000000e+00 0.000000e+00 0.000000e+00 0.000000e+00 0.000000e+00 0.000000e+00 0.000000e+00 0.000000e+00 0.000000e+00 0.000000e+00 0.000000e+00 
    77.5                0.000000e+00 0.000000e+00 0.000000e+00 0.000000e+00 0.000000e+00 0.000000e+00 0.000000e+00 0.000000e+00 0.000000e+00 0.000000e+00 0.000000e+00 0.000000e+00 
    78.5                0.000000e+00 0.000000e+00 0.000000e+00 0.000000e+00 0.000000e+00 0.000000e+00 0.000000e+00 0.000000e+00 0.000000e+00 0.000000e+00 0.000000e+00 0.000000e+00 
    79.5                0.000000e+00 0.000000e+00 0.000000e+00 0.000000e+00 0.000000e+00 0.000000e+00 0.000000e+00 0.000000e+00 0.000000e+00 0.000000e+00 0.000000e+00 0.000000e+00 


