# 80 rows of flux data
# 12 columns of flux data
# 
# total cross-sectional flux  2.171371e+00 /m^2/yr
#
#                             +x ram      -x wake      +y port -y starboard    +z zenith     -z nadir        Earth          Sun     anti-Sun      rot (x)      rot (y)      rot (z) 
# average speed (km/s)         24.65        23.82        24.51        17.30        23.99        23.47        18.10        24.66        24.66        23.59        24.16        24.07 
# total flux (#/m2/yr)  7.235038e-01 6.169967e-01 8.024986e-01 1.055715e-01 1.028794e+00 6.636414e-04 3.448540e-02 9.548248e-01 9.413986e-01 1.454309e+00 1.876286e+00 1.783381e+00 
# velocity (km/s)
     0.5                0.000000e+00 0.000000e+00 0.000000e+00 0.000000e+00 0.000000e+00 0.000000e+00 0.000000e+00 0.000000e+00 0.000000e+00 0.000000e+00 0.000000e+00 0.000000e+00 
     1.5                0.000000e+00 0.000000e+00 0.000000e+00 0.000000e+00 0.000000e+00 0.000000e+00 0.000000e+00 0.000000e+00 0.000000e+00 0.000000e+00 0.000000e+00 0.000000e+00 
     2.5                0.000000e+00 5.413006e-06 7.783462e-07 7.509313e-07 2.390832e-06 1.488718e-09 2.195634e-07 1.843706e-06 2.073353e-07 3.086447e-06 6.119465e-06 5.723268e-06 
     3.5                3.206470e-06 1.249409e-04 5.377031e-05 2.013393e-05 9.240738e-05 5.330711e-08 6.463974e-06 5.675248e-05 2.444915e-05 1.274579e-04 1.742255e-04 1.604338e-04 
     4.5                1.272750e-04 5.614056e-04 3.439413e-04 1.182878e-04 5.285350e-04 3.231950e-07 3.829637e-05 2.950282e-04 1.814348e-04 7.663263e-04 9.606934e-04 9.083657e-04 
     5.5                5.918152e-04 1.505134e-03 1.191846e-03 4.169279e-04 1.763998e-03 1.095129e-06 1.333721e-04 9.715582e-04 7.498117e-04 2.631481e-03 3.045106e-03 2.914944e-03 
     6.5                1.971442e-03 2.816543e-03 2.701216e-03 9.445131e-04 3.914777e-03 2.687300e-06 3.079932e-04 2.204547e-03 1.910364e-03 5.942582e-03 6.873836e-03 6.636363e-03 
     7.5                3.652294e-03 4.978897e-03 4.783724e-03 1.817977e-03 7.002845e-03 5.013341e-06 5.787047e-04 4.000357e-03 3.738593e-03 1.070661e-02 1.234851e-02 1.198209e-02 
     8.5                6.140097e-03 7.404363e-03 7.753111e-03 2.721111e-03 1.115434e-02 7.835145e-06 8.606517e-04 6.443364e-03 6.332180e-03 1.701088e-02 1.949988e-02 1.887449e-02 
     9.5                9.358984e-03 9.402153e-03 1.080649e-02 3.813322e-03 1.555394e-02 1.093008e-05 1.193337e-03 9.424984e-03 9.425703e-03 2.374143e-02 2.709617e-02 2.624065e-02 
    10.5                1.264278e-02 1.142295e-02 1.343520e-02 5.197298e-03 1.954809e-02 1.476006e-05 1.631233e-03 1.291814e-02 1.286282e-02 3.014756e-02 3.445812e-02 3.357707e-02 
    11.5                1.488332e-02 1.310256e-02 1.575524e-02 6.380417e-03 2.310586e-02 1.745393e-05 1.986371e-03 1.638251e-02 1.621038e-02 3.568769e-02 4.036277e-02 3.940656e-02 
    12.5                1.705034e-02 1.435730e-02 1.743444e-02 7.183716e-03 2.573703e-02 1.921440e-05 2.188968e-03 1.945310e-02 1.923707e-02 3.956869e-02 4.513563e-02 4.405296e-02 
    13.5                1.831381e-02 1.629619e-02 1.920398e-02 7.586695e-03 2.822833e-02 2.041306e-05 2.275939e-03 2.240161e-02 2.216651e-02 4.305317e-02 4.962909e-02 4.831577e-02 
    14.5                1.996342e-02 1.799185e-02 2.149890e-02 7.515536e-03 3.091383e-02 2.174357e-05 2.236006e-03 2.554312e-02 2.526701e-02 4.668313e-02 5.441842e-02 5.276025e-02 
    15.5                2.168788e-02 1.954153e-02 2.368392e-02 7.114513e-03 3.325034e-02 2.281750e-05 2.102010e-03 2.852241e-02 2.821652e-02 4.963028e-02 5.888813e-02 5.682003e-02 
    16.5                2.353868e-02 2.094349e-02 2.577769e-02 6.769322e-03 3.543971e-02 2.436254e-05 2.023994e-03 3.133933e-02 3.100661e-02 5.247857e-02 6.322063e-02 6.083490e-02 
    17.5                2.487722e-02 2.229146e-02 2.752843e-02 6.250417e-03 3.716249e-02 2.510540e-05 1.890681e-03 3.383867e-02 3.348673e-02 5.450638e-02 6.672543e-02 6.397736e-02 
    18.5                2.609402e-02 2.326800e-02 2.919508e-02 5.563814e-03 3.864378e-02 2.561820e-05 1.707496e-03 3.604939e-02 3.567305e-02 5.614118e-02 6.965654e-02 6.654939e-02 
    19.5                2.726917e-02 2.399801e-02 3.042844e-02 5.093144e-03 3.976130e-02 2.626850e-05 1.589830e-03 3.783290e-02 3.743492e-02 5.737445e-02 7.207658e-02 6.872452e-02 
    20.5                2.787666e-02 2.466255e-02 3.132535e-02 4.553610e-03 4.044145e-02 2.640708e-05 1.434874e-03 3.906525e-02 3.864340e-02 5.791386e-02 7.363854e-02 7.006524e-02 
    21.5                2.832936e-02 2.567180e-02 3.239980e-02 4.002844e-03 4.130917e-02 2.673743e-05 1.309255e-03 4.041829e-02 3.995782e-02 5.873095e-02 7.548869e-02 7.167185e-02 
    22.5                2.922209e-02 2.629455e-02 3.357563e-02 3.638582e-03 4.245443e-02 2.704381e-05 1.201083e-03 4.181731e-02 4.131944e-02 5.997696e-02 7.761086e-02 7.356603e-02 
    23.5                2.998995e-02 2.653096e-02 3.425148e-02 3.145924e-03 4.290853e-02 2.713253e-05 1.074938e-03 4.261709e-02 4.208792e-02 6.022534e-02 7.877425e-02 7.454846e-02 
    24.5                3.014969e-02 2.665830e-02 3.451960e-02 2.746065e-03 4.294168e-02 2.700529e-05 9.677857e-04 4.286133e-02 4.230259e-02 5.992034e-02 7.903799e-02 7.471065e-02 
    25.5                3.019374e-02 2.653234e-02 3.461720e-02 2.335527e-03 4.277387e-02 2.662437e-05 8.551582e-04 4.280264e-02 4.221642e-02 5.931153e-02 7.884653e-02 7.443499e-02 
    26.5                3.005498e-02 2.585841e-02 3.421902e-02 2.001201e-03 4.207762e-02 2.593021e-05 7.546970e-04 4.216098e-02 4.156438e-02 5.801729e-02 7.765631e-02 7.323902e-02 
    27.5                2.943102e-02 2.519857e-02 3.338347e-02 1.694627e-03 4.087407e-02 2.519838e-05 6.645815e-04 4.104590e-02 4.044980e-02 5.608327e-02 7.569948e-02 7.135384e-02 
    28.5                2.847828e-02 2.434561e-02 3.242847e-02 1.443744e-03 3.957216e-02 2.411230e-05 5.832986e-04 3.963906e-02 3.904395e-02 5.404168e-02 7.323148e-02 6.897249e-02 
    29.5                2.758817e-02 2.321091e-02 3.120960e-02 1.197147e-03 3.795406e-02 2.305725e-05 5.079984e-04 3.797887e-02 3.739207e-02 5.160957e-02 7.034943e-02 6.622363e-02 
    30.5                2.632177e-02 2.194705e-02 2.968082e-02 9.955098e-04 3.600101e-02 2.178484e-05 4.419672e-04 3.593631e-02 3.536917e-02 4.874962e-02 6.680030e-02 6.285368e-02 
    31.5                2.491599e-02 2.046981e-02 2.794567e-02 7.958579e-04 3.380427e-02 2.036937e-05 3.744608e-04 3.362197e-02 3.307880e-02 4.558128e-02 6.277781e-02 5.903972e-02 
    32.5                2.330361e-02 1.876793e-02 2.594160e-02 6.375673e-04 3.131479e-02 1.878944e-05 3.180151e-04 3.098251e-02 3.047387e-02 4.206645e-02 5.817815e-02 5.469227e-02 
    33.5                2.150604e-02 1.685591e-02 2.364584e-02 5.044677e-04 2.849355e-02 1.709213e-05 2.679324e-04 2.804355e-02 2.757597e-02 3.815768e-02 5.300423e-02 4.981792e-02 
    34.5                1.942251e-02 1.494523e-02 2.117905e-02 3.960493e-04 2.548573e-02 1.527862e-05 2.239740e-04 2.493592e-02 2.451618e-02 3.403399e-02 4.745551e-02 4.459497e-02 
    35.5                1.730082e-02 1.304260e-02 1.868713e-02 3.032274e-04 2.245848e-02 1.346763e-05 1.843217e-04 2.183698e-02 2.146545e-02 2.990743e-02 4.186749e-02 3.933794e-02 
    36.5                1.515593e-02 1.119652e-02 1.624374e-02 2.204635e-04 1.949475e-02 1.165936e-05 1.476149e-04 1.880745e-02 1.848376e-02 2.588771e-02 3.635256e-02 3.414822e-02 
    37.5                1.310154e-02 9.407344e-03 1.386780e-02 1.596436e-04 1.662623e-02 9.942427e-06 1.178730e-04 1.591090e-02 1.563672e-02 2.202347e-02 3.103088e-02 2.914601e-02 
    38.5                1.108838e-02 7.645926e-03 1.155364e-02 1.103652e-04 1.383845e-02 8.261410e-06 9.154085e-05 1.312219e-02 1.289601e-02 1.828880e-02 2.582861e-02 2.425497e-02 
    39.5                9.160706e-03 5.942562e-03 9.297474e-03 7.342447e-05 1.112693e-02 6.654240e-06 6.937605e-05 1.045816e-02 1.027964e-02 1.467612e-02 2.080025e-02 1.953304e-02 
    40.5                7.260385e-03 4.391777e-03 7.149709e-03 4.681126e-05 8.550883e-03 5.145046e-06 5.088562e-05 7.967162e-03 7.833605e-03 1.125864e-02 1.602373e-02 1.504931e-02 
    41.5                5.492864e-03 3.097777e-03 5.237692e-03 2.837097e-05 6.260825e-03 3.810672e-06 3.588436e-05 5.790046e-03 5.695435e-03 8.230810e-03 1.178198e-02 1.106910e-02 
    42.5                3.946468e-03 2.067537e-03 3.657659e-03 1.632932e-05 4.370244e-03 2.676111e-06 2.413698e-05 4.002450e-03 3.938817e-03 5.737747e-03 8.239348e-03 7.741578e-03 
    43.5                2.714168e-03 1.237743e-03 2.393251e-03 8.797786e-06 2.858431e-03 1.762535e-06 1.532231e-05 2.593281e-03 2.554305e-03 3.748821e-03 5.404703e-03 5.079400e-03 
    44.5                1.723293e-03 6.434857e-04 1.407463e-03 4.434133e-06 1.680520e-03 1.066844e-06 9.085686e-06 1.520560e-03 1.500399e-03 2.202286e-03 3.213854e-03 3.023734e-03 
    45.5                9.623258e-04 2.665987e-04 7.125506e-04 1.959799e-06 8.505436e-04 5.661988e-07 4.726500e-06 7.706552e-04 7.620501e-04 1.113993e-03 1.652638e-03 1.557244e-03 
    46.5                4.494481e-04 7.813853e-05 2.880085e-04 7.530145e-07 3.436864e-04 2.555762e-07 2.109393e-06 3.177610e-04 3.155441e-04 4.500569e-04 6.938910e-04 6.561882e-04 
    47.5                1.550495e-04 1.523487e-05 8.469874e-05 2.317255e-07 1.010456e-04 8.900533e-08 7.352891e-07 9.724234e-05 9.718323e-05 1.323394e-04 2.169810e-04 2.062851e-04 
    48.5                3.746681e-05 1.362696e-06 1.706399e-05 5.008173e-08 2.034863e-05 2.190465e-08 1.766709e-07 2.078192e-05 2.092776e-05 2.665943e-05 4.752106e-05 4.548824e-05 
    49.5                5.219609e-06 1.187459e-08 1.841133e-06 6.772775e-09 2.194473e-06 3.131370e-09 2.609321e-08 2.543441e-06 2.590547e-06 2.878171e-06 5.998932e-06 5.807946e-06 
    50.5                1.507592e-07 0.000000e+00 3.527964e-08 2.092345e-10 4.202307e-08 9.350447e-11 8.982256e-10 6.526800e-08 6.657970e-08 5.527899e-08 1.595430e-07 1.570941e-07 
    51.5                0.000000e+00 0.000000e+00 0.000000e+00 0.000000e+00 0.000000e+00 0.000000e+00 0.000000e+00 0.000000e+00 0.000000e+00 0.000000e+00 0.000000e+00 0.000000e+00 
    52.5                0.000000e+00 0.000000e+00 0.000000e+00 0.000000e+00 0.000000e+00 0.000000e+00 0.000000e+00 0.000000e+00 0.000000e+00 0.000000e+00 0.000000e+00 0.000000e+00 
    53.5                0.000000e+00 0.000000e+00 0.000000e+00 0.000000e+00 0.000000e+00 0.000000e+00 0.000000e+00 0.000000e+00 0.000000e+00 0.000000e+00 0.000000e+00 0.000000e+00 
    54.5                0.000000e+00 0.000000e+00 0.000000e+00 0.000000e+00 0.000000e+00 0.000000e+00 0.000000e+00 0.000000e+00 0.000000e+00 0.000000e+00 0.000000e+00 0.000000e+00 
    55.5                0.000000e+00 0.000000e+00 0.000000e+00 0.000000e+00 0.000000e+00 0.000000e+00 0.000000e+00 0.000000e+00 0.000000e+00 0.000000e+00 0.000000e+00 0.000000e+00 
    56.5                0.000000e+00 0.000000e+00 0.000000e+00 0.000000e+00 0.000000e+00 0.000000e+00 0.000000e+00 0.000000e+00 0.000000e+00 0.000000e+00 0.000000e+00 0.000000e+00 
    57.5                0.000000e+00 0.000000e+00 0.000000e+00 0.000000e+00 0.000000e+00 0.000000e+00 0.000000e+00 0.000000e+00 0.000000e+00 0.000000e+00 0.000000e+00 0.000000e+00 
    58.5                0.000000e+00 0.000000e+00 0.000000e+00 0.000000e+00 0.000000e+00 0.000000e+00 0.000000e+00 0.000000e+00 0.000000e+00 0.000000e+00 0.000000e+00 0.000000e+00 
    59.5                0.000000e+00 0.000000e+00 0.000000e+00 0.000000e+00 0.000000e+00 0.000000e+00 0.000000e+00 0.000000e+00 0.000000e+00 0.000000e+00 0.000000e+00 0.000000e+00 
    60.5                0.000000e+00 0.000000e+00 0.000000e+00 0.000000e+00 0.000000e+00 0.000000e+00 0.000000e+00 0.000000e+00 0.000000e+00 0.000000e+00 0.000000e+00 0.000000e+00 
    61.5                0.000000e+00 0.000000e+00 0.000000e+00 0.000000e+00 0.000000e+00 0.000000e+00 0.000000e+00 0.000000e+00 0.000000e+00 0.000000e+00 0.000000e+00 0.000000e+00 
    62.5                0.000000e+00 0.000000e+00 0.000000e+00 0.000000e+00 0.000000e+00 0.000000e+00 0.000000e+00 0.000000e+00 0.000000e+00 0.000000e+00 0.000000e+00 0.000000e+00 
    63.5                0.000000e+00 0.000000e+00 0.000000e+00 0.000000e+00 0.000000e+00 0.000000e+00 0.000000e+00 0.000000e+00 0.000000e+00 0.000000e+00 0.000000e+00 0.000000e+00 
    64.5                0.000000e+00 0.000000e+00 0.000000e+00 0.000000e+00 0.000000e+00 0.000000e+00 0.000000e+00 0.000000e+00 0.000000e+00 0.000000e+00 0.000000e+00 0.000000e+00 
    65.5                0.000000e+00 0.000000e+00 0.000000e+00 0.000000e+00 0.000000e+00 0.000000e+00 0.000000e+00 0.000000e+00 0.000000e+00 0.000000e+00 0.000000e+00 0.000000e+00 
    66.5                0.000000e+00 0.000000e+00 0.000000e+00 0.000000e+00 0.000000e+00 0.000000e+00 0.000000e+00 0.000000e+00 0.000000e+00 0.000000e+00 0.000000e+00 0.000000e+00 
    67.5                0.000000e+00 0.000000e+00 0.000000e+00 0.000000e+00 0.000000e+00 0.000000e+00 0.000000e+00 0.000000e+00 0.000000e+00 0.000000e+00 0.000000e+00 0.000000e+00 
    68.5                0.000000e+00 0.000000e+00 0.000000e+00 0.000000e+00 0.000000e+00 0.000000e+00 0.000000e+00 0.000000e+00 0.000000e+00 0.000000e+00 0.000000e+00 0.000000e+00 
    69.5                0.000000e+00 0.000000e+00 0.000000e+00 0.000000e+00 0.000000e+00 0.000000e+00 0.000000e+00 0.000000e+00 0.000000e+00 0.000000e+00 0.000000e+00 0.000000e+00 
    70.5                0.000000e+00 0.000000e+00 0.000000e+00 0.000000e+00 0.000000e+00 0.000000e+00 0.000000e+00 0.000000e+00 0.000000e+00 0.000000e+00 0.000000e+00 0.000000e+00 
    71.5                0.000000e+00 0.000000e+00 0.000000e+00 0.000000e+00 0.000000e+00 0.000000e+00 0.000000e+00 0.000000e+00 0.000000e+00 0.000000e+00 0.000000e+00 0.000000e+00 
    72.5                0.000000e+00 0.000000e+00 0.000000e+00 0.000000e+00 0.000000e+00 0.000000e+00 0.000000e+00 0.000000e+00 0.000000e+00 0.000000e+00 0.000000e+00 0.000000e+00 
    73.5                0.000000e+00 0.000000e+00 0.000000e+00 0.000000e+00 0.000000e+00 0.000000e+00 0.000000e+00 0.000000e+00 0.000000e+00 0.000000e+00 0.000000e+00 0.000000e+00 
    74.5                0.000000e+00 0.000000e+00 0.000000e+00 0.000000e+00 0.000000e+00 0.000000e+00 0.000000e+00 0.000000e+00 0.000000e+00 0.000000e+00 0.000000e+00 0.000000e+00 
    75.5                0.000000e+00 0.000000e+00 0.000000e+00 0.000000e+00 0.000000e+00 0.000000e+00 0.000000e+00 0.000000e+00 0.000000e+00 0.000000e+00 0.000000e+00 0.000000e+00 
    76.5                0.000000e+00 0.000000e+00 0.000000e+00 0.000000e+00 0.000000e+00 0.000000e+00 0.000000e+00 0.000000e+00 0.000000e+00 0.000000e+00 0.000000e+00 0.000000e+00 
    77.5                0.000000e+00 0.000000e+00 0.000000e+00 0.000000e+00 0.000000e+00 0.000000e+00 0.000000e+00 0.000000e+00 0.000000e+00 0.000000e+00 0.000000e+00 0.000000e+00 
    78.5                0.000000e+00 0.000000e+00 0.000000e+00 0.000000e+00 0.000000e+00 0.000000e+00 0.000000e+00 0.000000e+00 0.000000e+00 0.000000e+00 0.000000e+00 0.000000e+00 
    79.5                0.000000e+00 0.000000e+00 0.000000e+00 0.000000e+00 0.000000e+00 0.000000e+00 0.000000e+00 0.000000e+00 0.000000e+00 0.000000e+00 0.000000e+00 0.000000e+00 


