# 80 rows of flux data
# 12 columns of flux data
# 
# total cross-sectional flux  1.057704e+00 /m^2/yr
#
#                             +x ram      -x wake      +y port -y starboard    +z zenith     -z nadir        Earth          Sun     anti-Sun      rot (x)      rot (y)      rot (z) 
# average speed (km/s)         36.78        38.06        28.39        35.54        36.45        31.40        26.90        28.09        27.59        33.58        36.91        33.87 
# total flux (#/m2/yr)  2.619187e-01 2.194465e-01 3.557602e-01 2.764116e-01 4.758426e-01 4.136438e-04 2.748746e-02 1.755515e-01 1.655053e-01 8.752034e-01 7.551335e-01 8.657668e-01 
# velocity (km/s)
     0.5                0.000000e+00 0.000000e+00 0.000000e+00 0.000000e+00 0.000000e+00 0.000000e+00 0.000000e+00 0.000000e+00 0.000000e+00 0.000000e+00 0.000000e+00 0.000000e+00 
     1.5                0.000000e+00 0.000000e+00 0.000000e+00 0.000000e+00 0.000000e+00 0.000000e+00 0.000000e+00 0.000000e+00 0.000000e+00 0.000000e+00 0.000000e+00 0.000000e+00 
     2.5                2.614814e-05 1.196467e-04 7.461098e-05 7.332232e-05 1.559848e-04 6.789664e-08 6.675436e-06 8.236937e-05 7.272960e-05 2.412203e-04 2.393506e-04 2.310843e-04 
     3.5                3.241773e-04 4.737631e-04 3.312314e-04 3.846230e-04 8.073821e-04 3.850313e-07 2.833272e-05 4.340980e-04 3.928489e-04 1.201674e-03 1.267652e-03 1.187655e-03 
     4.5                9.307064e-04 8.486909e-04 7.655288e-04 8.835089e-04 1.735352e-03 9.585920e-07 6.151023e-05 9.709278e-04 9.201663e-04 2.666679e-03 2.773851e-03 2.687483e-03 
     5.5                1.612745e-03 1.270877e-03 1.365126e-03 1.476062e-03 2.760974e-03 1.746329e-06 1.094865e-04 1.621238e-03 1.558445e-03 4.417509e-03 4.452913e-03 4.475465e-03 
     6.5                2.310529e-03 1.654123e-03 2.193191e-03 2.086642e-03 3.825043e-03 2.691810e-06 1.713398e-04 2.273869e-03 2.218769e-03 6.393164e-03 6.145213e-03 6.448533e-03 
     7.5                2.904391e-03 2.033047e-03 3.145609e-03 2.687945e-03 4.807117e-03 3.771963e-06 2.515128e-04 2.883905e-03 2.824146e-03 8.407064e-03 7.688791e-03 8.438251e-03 
     8.5                3.444027e-03 2.377632e-03 4.111840e-03 3.207507e-03 5.707985e-03 4.731788e-06 3.272188e-04 3.430452e-03 3.390763e-03 1.029505e-02 9.095603e-03 1.029919e-02 
     9.5                3.874907e-03 2.645670e-03 5.082995e-03 3.679912e-03 6.489959e-03 5.776290e-06 4.118403e-04 3.926583e-03 3.871398e-03 1.206971e-02 1.026408e-02 1.200107e-02 
    10.5                4.226098e-03 2.954749e-03 6.068717e-03 4.101352e-03 7.190959e-03 6.760160e-06 4.951891e-04 4.402800e-03 4.315270e-03 1.374678e-02 1.133902e-02 1.364244e-02 
    11.5                4.606635e-03 3.191067e-03 7.306723e-03 4.512801e-03 7.955434e-03 7.796263e-06 5.984491e-04 4.886827e-03 4.769754e-03 1.566979e-02 1.242656e-02 1.546244e-02 
    12.5                4.889641e-03 3.373584e-03 8.194167e-03 4.896727e-03 8.479447e-03 8.833042e-06 6.779479e-04 5.234827e-03 5.092179e-03 1.710786e-02 1.321099e-02 1.684566e-02 
    13.5                5.064143e-03 3.408211e-03 9.145067e-03 5.016181e-03 8.812303e-03 9.406493e-06 7.515885e-04 5.378922e-03 5.227259e-03 1.823076e-02 1.364215e-02 1.791319e-02 
    14.5                4.954909e-03 3.536841e-03 9.711400e-03 5.036867e-03 8.957016e-03 9.803694e-06 8.059799e-04 5.439743e-03 5.278024e-03 1.882078e-02 1.376844e-02 1.843878e-02 
    15.5                5.121902e-03 3.601480e-03 1.066654e-02 5.244655e-03 9.316887e-03 1.063873e-05 8.941047e-04 5.569730e-03 5.392074e-03 2.004710e-02 1.423644e-02 1.958462e-02 
    16.5                5.075515e-03 3.652088e-03 1.095536e-02 5.237742e-03 9.357049e-03 1.083104e-05 9.201444e-04 5.584066e-03 5.405957e-03 2.030669e-02 1.426890e-02 1.981793e-02 
    17.5                5.089910e-03 3.667785e-03 1.130474e-02 5.320676e-03 9.456941e-03 1.096932e-05 9.430586e-04 5.555828e-03 5.363873e-03 2.072778e-02 1.437459e-02 2.019704e-02 
    18.5                5.058815e-03 3.733379e-03 1.171631e-02 5.392994e-03 9.542703e-03 1.136474e-05 9.833257e-04 5.524566e-03 5.325383e-03 2.118852e-02 1.446909e-02 2.062059e-02 
    19.5                5.017835e-03 3.718803e-03 1.176907e-02 5.460299e-03 9.517926e-03 1.162448e-05 9.958478e-04 5.414220e-03 5.204902e-03 2.127193e-02 1.440184e-02 2.064301e-02 
    20.5                4.942605e-03 3.666363e-03 1.160069e-02 5.405788e-03 9.286749e-03 1.141311e-05 9.789805e-04 5.225286e-03 5.016348e-03 2.091108e-02 1.411877e-02 2.033241e-02 
    21.5                4.787258e-03 3.715734e-03 1.169783e-02 5.381912e-03 9.263817e-03 1.111147e-05 9.779000e-04 5.080422e-03 4.867925e-03 2.093778e-02 1.401618e-02 2.030041e-02 
    22.5                4.857338e-03 3.640883e-03 1.186236e-02 5.491988e-03 9.295804e-03 1.145097e-05 9.947558e-04 4.962493e-03 4.740538e-03 2.118851e-02 1.404219e-02 2.051144e-02 
    23.5                4.631888e-03 3.494252e-03 1.121520e-02 5.207434e-03 8.770303e-03 1.084577e-05 9.450521e-04 4.645273e-03 4.441064e-03 2.002865e-02 1.332534e-02 1.942623e-02 
    24.5                4.365943e-03 3.413083e-03 1.066659e-02 5.090280e-03 8.392912e-03 1.059301e-05 9.010934e-04 4.372652e-03 4.170800e-03 1.920099e-02 1.275288e-02 1.859458e-02 
    25.5                4.274811e-03 3.325243e-03 1.038452e-02 5.025801e-03 8.143579e-03 1.062950e-05 8.814287e-04 4.141155e-03 3.941765e-03 1.873810e-02 1.241463e-02 1.814908e-02 
    26.5                4.091287e-03 3.301481e-03 9.862971e-03 4.966437e-03 7.890696e-03 1.018560e-05 8.331900e-04 3.925984e-03 3.725636e-03 1.806604e-02 1.205089e-02 1.747843e-02 
    27.5                4.028971e-03 3.170288e-03 9.329755e-03 4.914811e-03 7.601288e-03 9.968537e-06 7.866032e-04 3.713529e-03 3.515860e-03 1.736586e-02 1.167037e-02 1.680453e-02 
    28.5                3.845699e-03 3.101303e-03 8.829539e-03 4.779733e-03 7.274483e-03 9.456739e-06 7.376700e-04 3.443746e-03 3.251914e-03 1.658845e-02 1.121477e-02 1.606232e-02 
    29.5                3.702184e-03 2.877707e-03 8.321013e-03 4.563729e-03 6.880533e-03 9.021335e-06 6.970332e-04 3.127298e-03 2.944644e-03 1.569390e-02 1.061276e-02 1.518315e-02 
    30.5                3.428763e-03 2.806193e-03 7.954260e-03 4.316479e-03 6.501275e-03 8.530556e-06 6.680156e-04 2.897174e-03 2.726319e-03 1.490434e-02 1.003870e-02 1.441975e-02 
    31.5                3.316022e-03 2.798195e-03 7.520134e-03 4.355871e-03 6.342343e-03 8.173035e-06 6.159600e-04 2.729499e-03 2.556555e-03 1.444767e-02 9.822196e-03 1.396655e-02 
    32.5                3.227599e-03 2.686018e-03 6.938474e-03 4.199608e-03 6.051954e-03 7.574835e-06 5.592508e-04 2.508185e-03 2.342090e-03 1.361088e-02 9.435166e-03 1.317072e-02 
    33.5                3.130851e-03 2.748186e-03 6.532585e-03 4.221528e-03 5.955969e-03 7.253970e-06 5.144558e-04 2.324875e-03 2.156596e-03 1.321099e-02 9.333377e-03 1.279046e-02 
    34.5                3.189342e-03 2.751431e-03 6.481378e-03 4.324733e-03 6.015310e-03 7.175483e-06 5.010562e-04 2.237766e-03 2.065949e-03 1.328559e-02 9.431609e-03 1.285329e-02 
    35.5                3.068777e-03 2.649999e-03 5.807441e-03 4.112766e-03 5.710201e-03 6.381271e-06 4.345409e-04 2.088964e-03 1.927903e-03 1.231313e-02 9.014977e-03 1.193284e-02 
    36.5                2.965827e-03 2.707406e-03 5.560346e-03 4.095945e-03 5.671167e-03 6.047745e-06 4.067332e-04 1.955351e-03 1.794844e-03 1.205526e-02 8.951349e-03 1.166845e-02 
    37.5                3.096446e-03 2.786488e-03 5.567450e-03 4.187914e-03 5.791848e-03 6.183286e-06 4.056416e-04 1.897567e-03 1.735821e-03 1.222007e-02 9.215153e-03 1.188089e-02 
    38.5                3.002343e-03 2.987077e-03 5.295119e-03 4.213254e-03 5.886992e-03 5.873908e-06 3.749388e-04 1.824056e-03 1.661071e-03 1.207482e-02 9.367958e-03 1.172588e-02 
    39.5                3.233424e-03 2.874747e-03 5.121885e-03 4.292444e-03 6.022355e-03 5.689010e-06 3.532431e-04 1.771265e-03 1.605911e-03 1.208478e-02 9.569126e-03 1.172153e-02 
    40.5                3.180947e-03 2.963443e-03 4.962285e-03 4.257236e-03 5.957570e-03 5.515252e-06 3.343820e-04 1.698904e-03 1.538158e-03 1.186761e-02 9.554462e-03 1.157958e-02 
    41.5                3.211722e-03 3.267368e-03 4.830750e-03 4.406137e-03 6.271400e-03 5.362178e-06 3.152029e-04 1.681002e-03 1.514226e-03 1.210350e-02 1.006004e-02 1.180910e-02 
    42.5                3.491118e-03 3.167228e-03 4.544727e-03 4.436590e-03 6.459158e-03 5.063047e-06 2.866831e-04 1.671520e-03 1.503849e-03 1.202735e-02 1.035276e-02 1.173284e-02 
    43.5                3.394836e-03 3.348990e-03 4.252531e-03 4.301800e-03 6.363811e-03 4.896338e-06 2.649453e-04 1.619372e-03 1.458255e-03 1.161269e-02 1.034299e-02 1.145655e-02 
    44.5                3.547534e-03 3.682405e-03 4.290214e-03 4.598908e-03 6.930204e-03 4.952628e-06 2.597510e-04 1.671601e-03 1.498933e-03 1.230203e-02 1.117599e-02 1.206316e-02 
    45.5                3.910827e-03 3.654261e-03 4.223130e-03 4.684128e-03 7.145940e-03 4.997484e-06 2.518448e-04 1.673229e-03 1.500624e-03 1.247139e-02 1.160694e-02 1.231870e-02 
    46.5                3.828032e-03 3.750639e-03 4.023653e-03 4.650463e-03 7.191431e-03 4.807897e-06 2.353756e-04 1.636440e-03 1.466267e-03 1.232049e-02 1.165534e-02 1.216270e-02 
    47.5                3.969019e-03 3.997658e-03 3.895191e-03 4.716429e-03 7.471990e-03 4.835481e-06 2.255319e-04 1.657313e-03 1.484772e-03 1.250202e-02 1.218357e-02 1.243306e-02 
    48.5                4.061896e-03 4.380293e-03 3.740569e-03 4.840741e-03 7.976292e-03 4.901095e-06 2.155161e-04 1.707902e-03 1.529565e-03 1.288846e-02 1.295380e-02 1.279259e-02 
    49.5                4.495937e-03 4.810730e-03 3.733847e-03 5.120527e-03 8.628445e-03 5.167349e-06 2.129889e-04 1.773268e-03 1.584680e-03 1.361899e-02 1.414716e-02 1.368495e-02 
    50.5                4.782948e-03 5.505459e-03 3.683438e-03 5.486739e-03 9.576475e-03 5.448659e-06 2.068431e-04 1.865256e-03 1.660732e-03 1.462876e-02 1.567303e-02 1.472690e-02 
    51.5                5.460395e-03 6.058168e-03 3.579008e-03 5.922900e-03 1.084730e-02 5.723249e-06 2.005757e-04 1.960308e-03 1.735875e-03 1.593156e-02 1.764619e-02 1.600563e-02 
    52.5                6.153319e-03 6.058990e-03 3.339425e-03 6.025071e-03 1.142291e-02 5.840276e-06 1.877233e-04 2.009744e-03 1.780232e-03 1.631438e-02 1.864252e-02 1.652544e-02 
    53.5                6.264478e-03 6.139554e-03 3.060888e-03 5.931128e-03 1.154702e-02 5.768174e-06 1.727355e-04 2.023812e-03 1.798494e-03 1.614603e-02 1.889262e-02 1.646401e-02 
    54.5                6.378401e-03 5.788032e-03 2.796921e-03 5.741555e-03 1.138853e-02 5.556632e-06 1.577814e-04 2.000120e-03 1.783331e-03 1.568059e-02 1.858645e-02 1.597367e-02 
    55.5                6.309973e-03 5.831289e-03 2.615854e-03 5.547763e-03 1.112519e-02 5.513402e-06 1.485214e-04 1.967191e-03 1.760238e-03 1.519003e-02 1.834934e-02 1.570239e-02 
    56.5                6.169785e-03 5.557185e-03 2.403686e-03 5.372590e-03 1.090770e-02 5.171142e-06 1.346607e-04 1.918762e-03 1.720307e-03 1.471955e-02 1.785111e-02 1.511114e-02 
    57.5                5.941552e-03 5.073732e-03 2.133862e-03 4.944345e-03 1.015867e-02 4.870059e-06 1.213085e-04 1.817709e-03 1.637656e-03 1.359263e-02 1.671030e-02 1.405033e-02 
    58.5                5.466602e-03 4.865295e-03 1.857996e-03 4.551654e-03 9.518491e-03 4.472895e-06 1.068037e-04 1.680710e-03 1.516066e-03 1.258490e-02 1.565676e-02 1.303709e-02 
    59.5                5.164283e-03 4.637869e-03 1.635947e-03 4.271187e-03 9.068147e-03 4.154298e-06 9.386074e-05 1.544511e-03 1.390843e-03 1.185020e-02 1.487973e-02 1.227624e-02 
    60.5                4.984428e-03 4.214766e-03 1.432922e-03 3.930832e-03 8.468764e-03 3.879433e-06 8.393797e-05 1.381053e-03 1.240650e-03 1.096442e-02 1.393584e-02 1.141349e-02 
    61.5                4.517518e-03 3.671193e-03 1.153653e-03 3.474578e-03 7.654832e-03 3.377682e-06 6.840282e-05 1.209897e-03 1.086133e-03 9.756577e-03 1.250147e-02 1.009279e-02 
    62.5                4.168516e-03 3.007478e-03 9.298958e-04 2.930954e-03 6.546708e-03 2.947820e-06 5.714373e-05 1.031209e-03 9.279028e-04 8.280059e-03 1.082168e-02 8.720108e-03 
    63.5                3.405546e-03 2.450468e-03 6.959465e-04 2.361853e-03 5.348014e-03 2.378065e-06 4.327115e-05 8.466660e-04 7.642687e-04 6.696592e-03 8.836692e-03 7.073620e-03 
    64.5                2.805083e-03 1.961516e-03 5.343607e-04 1.895962e-03 4.339019e-03 1.943138e-06 3.399541e-05 6.710207e-04 6.055892e-04 5.399574e-03 7.183809e-03 5.723328e-03 
    65.5                2.228098e-03 1.496753e-03 3.796055e-04 1.470773e-03 3.422426e-03 1.491244e-06 2.483065e-05 5.069663e-04 4.564559e-04 4.212690e-03 5.638314e-03 4.449932e-03 
    66.5                1.785507e-03 1.063452e-03 2.616031e-04 1.098672e-03 2.595413e-03 1.132557e-06 1.781288e-05 3.640328e-04 3.266055e-04 3.165132e-03 4.294082e-03 3.374058e-03 
    67.5                1.311332e-03 6.804291e-04 1.613049e-04 7.464630e-04 1.793557e-03 7.901594e-07 1.165458e-05 2.372463e-04 2.120563e-04 2.165240e-03 2.986773e-03 2.337019e-03 
    68.5                8.819023e-04 3.812311e-04 8.744519e-05 4.617153e-04 1.131744e-03 5.033275e-07 6.795713e-06 1.370610e-04 1.215148e-04 1.348608e-03 1.889953e-03 1.468841e-03 
    69.5                5.397043e-04 1.683989e-04 4.151284e-05 2.484245e-04 6.184413e-04 2.798931e-07 3.496498e-06 6.710108e-05 5.883663e-05 7.280741e-04 1.046096e-03 8.129556e-04 
    70.5                2.704389e-04 4.292797e-05 1.542306e-05 1.033217e-04 2.604811e-04 1.284028e-07 1.435984e-06 2.557698e-05 2.219674e-05 3.031402e-04 4.531536e-04 3.543284e-04 
    71.5                9.813212e-05 5.630163e-06 4.271984e-06 2.792181e-05 7.034042e-05 4.792729e-08 4.714396e-07 6.491648e-06 5.613598e-06 8.164558e-05 1.377684e-04 1.131313e-04 
    72.5                1.716336e-05 1.184739e-07 5.157325e-07 3.788192e-06 9.655871e-06 8.997800e-09 7.654849e-08 9.113008e-07 7.974169e-07 1.106585e-05 2.149405e-05 1.832880e-05 
    73.5                1.311569e-06 0.000000e+00 1.431845e-08 1.795933e-07 4.736414e-07 8.228101e-10 5.238437e-09 3.876789e-08 3.342007e-08 5.274512e-07 1.444908e-06 1.335487e-06 
    74.5                0.000000e+00 0.000000e+00 0.000000e+00 0.000000e+00 0.000000e+00 0.000000e+00 0.000000e+00 0.000000e+00 0.000000e+00 0.000000e+00 0.000000e+00 0.000000e+00 
    75.5                0.000000e+00 0.000000e+00 0.000000e+00 0.000000e+00 0.000000e+00 0.000000e+00 0.000000e+00 0.000000e+00 0.000000e+00 0.000000e+00 0.000000e+00 0.000000e+00 
    76.5                0.000000e+00 0.000000e+00 0.000000e+00 0.000000e+00 0.000000e+00 0.000000e+00 0.000000e+00 0.000000e+00 0.000000e+00 0.000000e+00 0.000000e+00 0.000000e+00 
    77.5                0.000000e+00 0.000000e+00 0.000000e+00 0.000000e+00 0.000000e+00 0.000000e+00 0.000000e+00 0.000000e+00 0.000000e+00 0.000000e+00 0.000000e+00 0.000000e+00 
    78.5                0.000000e+00 0.000000e+00 0.000000e+00 0.000000e+00 0.000000e+00 0.000000e+00 0.000000e+00 0.000000e+00 0.000000e+00 0.000000e+00 0.000000e+00 0.000000e+00 
    79.5                0.000000e+00 0.000000e+00 0.000000e+00 0.000000e+00 0.000000e+00 0.000000e+00 0.000000e+00 0.000000e+00 0.000000e+00 0.000000e+00 0.000000e+00 0.000000e+00 


