# 80 rows of flux data
# 12 columns of flux data
# 
# total cross-sectional flux  2.205449e+00 /m^2/yr
#
#                             +x ram      -x wake      +y port -y starboard    +z zenith     -z nadir        Earth          Sun     anti-Sun      rot (x)      rot (y)      rot (z) 
# average speed (km/s)         23.84        24.67        18.06        25.00        23.27        23.92        24.68        24.64        24.65        23.56        24.00        24.18 
# total flux (#/m2/yr)  6.281165e-01 7.364169e-01 1.645479e-01 1.005733e+00 7.542869e-01 1.012766e-03 1.202549e+00 9.576093e-01 9.695414e-01 1.474341e+00 1.705824e+00 1.995813e+00 
# velocity (km/s)
     0.5                0.000000e+00 0.000000e+00 0.000000e+00 0.000000e+00 0.000000e+00 0.000000e+00 0.000000e+00 0.000000e+00 0.000000e+00 0.000000e+00 0.000000e+00 0.000000e+00 
     1.5                0.000000e+00 0.000000e+00 0.000000e+00 0.000000e+00 0.000000e+00 0.000000e+00 0.000000e+00 0.000000e+00 0.000000e+00 0.000000e+00 0.000000e+00 0.000000e+00 
     2.5                5.567387e-06 0.000000e+00 1.135106e-06 9.771778e-07 2.363664e-06 5.956806e-10 1.702977e-06 4.113154e-07 1.401756e-06 3.460107e-06 6.184281e-06 6.135470e-06 
     3.5                1.352683e-04 3.815087e-06 3.418247e-05 6.902945e-05 8.119805e-05 7.113276e-08 9.274839e-05 3.177389e-05 5.621910e-05 1.419531e-04 1.746302e-04 1.907067e-04 
     4.5                5.836839e-04 1.424691e-04 1.834198e-04 4.157148e-04 4.500087e-04 4.627603e-07 5.426501e-04 2.094991e-04 2.919731e-04 8.153063e-04 9.326522e-04 1.041290e-03 
     5.5                1.540005e-03 6.438307e-04 6.379055e-04 1.394610e-03 1.498299e-03 1.481661e-06 1.810010e-03 8.216365e-04 9.805914e-04 2.770854e-03 2.912928e-03 3.313689e-03 
     6.5                2.865231e-03 2.047278e-03 1.462012e-03 3.031911e-03 3.328306e-03 3.621458e-06 3.957702e-03 2.038923e-03 2.227758e-03 6.162215e-03 6.523669e-03 7.392858e-03 
     7.5                5.043095e-03 3.743364e-03 2.633657e-03 5.288421e-03 6.002528e-03 6.510885e-06 6.948815e-03 3.892947e-03 4.045066e-03 1.097682e-02 1.170280e-02 1.312847e-02 
     8.5                7.503157e-03 6.260759e-03 4.084592e-03 8.586399e-03 9.449980e-03 1.040521e-05 1.119961e-02 6.517156e-03 6.562858e-03 1.744633e-02 1.835531e-02 2.076182e-02 
     9.5                9.513619e-03 9.552450e-03 5.692494e-03 1.195955e-02 1.316329e-02 1.497283e-05 1.558444e-02 9.651554e-03 9.646945e-03 2.433407e-02 2.550684e-02 2.884300e-02 
    10.5                1.152949e-02 1.281279e-02 7.452349e-03 1.452774e-02 1.680306e-02 1.861378e-05 1.914775e-02 1.308799e-02 1.318014e-02 3.064164e-02 3.255651e-02 3.639436e-02 
    11.5                1.323769e-02 1.501290e-02 8.767691e-03 1.703319e-02 1.996415e-02 2.115901e-05 2.248246e-02 1.649717e-02 1.667463e-02 3.611178e-02 3.813289e-02 4.247890e-02 
    12.5                1.451194e-02 1.720641e-02 9.494724e-03 1.913046e-02 2.217996e-02 2.368941e-05 2.510544e-02 1.955788e-02 1.974684e-02 4.002308e-02 4.266664e-02 4.741298e-02 
    13.5                1.649473e-02 1.850145e-02 9.971220e-03 2.141548e-02 2.407685e-02 2.640514e-05 2.784939e-02 2.254214e-02 2.272944e-02 4.361587e-02 4.684801e-02 5.215221e-02 
    14.5                1.823949e-02 2.020948e-02 1.016460e-02 2.441918e-02 2.581503e-02 2.968866e-05 3.127548e-02 2.571932e-02 2.594236e-02 4.740311e-02 5.108011e-02 5.738609e-02 
    15.5                1.983298e-02 2.198199e-02 9.966556e-03 2.741966e-02 2.708846e-02 3.270019e-05 3.457652e-02 2.873819e-02 2.899028e-02 5.046782e-02 5.490488e-02 6.224779e-02 
    16.5                2.126989e-02 2.388620e-02 9.778388e-03 3.021118e-02 2.832816e-02 3.521609e-05 3.768957e-02 3.156598e-02 3.184010e-02 5.333550e-02 5.867915e-02 6.692424e-02 
    17.5                2.266269e-02 2.525568e-02 9.328322e-03 3.275109e-02 2.909640e-02 3.740860e-05 4.041634e-02 3.410058e-02 3.439359e-02 5.542610e-02 6.159956e-02 7.074985e-02 
    18.5                2.366965e-02 2.652845e-02 8.744448e-03 3.521636e-02 2.959807e-02 3.954467e-05 4.299771e-02 3.634928e-02 3.665908e-02 5.714369e-02 6.394756e-02 7.403831e-02 
    19.5                2.443094e-02 2.774291e-02 8.281654e-03 3.708638e-02 2.999401e-02 4.143698e-05 4.495332e-02 3.815550e-02 3.848171e-02 5.842900e-02 6.596586e-02 7.671746e-02 
    20.5                2.512005e-02 2.837051e-02 7.629815e-03 3.857780e-02 3.004404e-02 4.213283e-05 4.642592e-02 3.937850e-02 3.972967e-02 5.895346e-02 6.716153e-02 7.842579e-02 
    21.5                2.615022e-02 2.884378e-02 6.997561e-03 4.028242e-02 3.021698e-02 4.296638e-05 4.817431e-02 4.070626e-02 4.109342e-02 5.975239e-02 6.858218e-02 8.046269e-02 
    22.5                2.680015e-02 2.977157e-02 6.515840e-03 4.211898e-02 3.068439e-02 4.403696e-05 5.009616e-02 4.209592e-02 4.251754e-02 6.100642e-02 7.032133e-02 8.278535e-02 
    23.5                2.705261e-02 3.056288e-02 5.860410e-03 4.333928e-02 3.060533e-02 4.447652e-05 5.127910e-02 4.286775e-02 4.332280e-02 6.122594e-02 7.118394e-02 8.405966e-02 
    24.5                2.718587e-02 3.073010e-02 5.224839e-03 4.401555e-02 3.030649e-02 4.418663e-05 5.185396e-02 4.306316e-02 4.355258e-02 6.085886e-02 7.125971e-02 8.434321e-02 
    25.5                2.706668e-02 3.078187e-02 4.551332e-03 4.448626e-02 2.986874e-02 4.353220e-05 5.218965e-02 4.295709e-02 4.347818e-02 6.018079e-02 7.092343e-02 8.414943e-02 
    26.5                2.638002e-02 3.064747e-02 3.939335e-03 4.427877e-02 2.913270e-02 4.236452e-05 5.176690e-02 4.227543e-02 4.281431e-02 5.881815e-02 6.972178e-02 8.287710e-02 
    27.5                2.570776e-02 3.001216e-02 3.391469e-03 4.342680e-02 2.809198e-02 4.103574e-05 5.062937e-02 4.112447e-02 4.167040e-02 5.680790e-02 6.789164e-02 8.077099e-02 
    28.5                2.483794e-02 2.904058e-02 2.876969e-03 4.241007e-02 2.702698e-02 3.906438e-05 4.932046e-02 3.967518e-02 4.022655e-02 5.468444e-02 6.556529e-02 7.812613e-02 
    29.5                2.368260e-02 2.813692e-02 2.398892e-03 4.100683e-02 2.576371e-02 3.713986e-05 4.758151e-02 3.798036e-02 3.853056e-02 5.217294e-02 6.291981e-02 7.503857e-02 
    30.5                2.239139e-02 2.684104e-02 1.962671e-03 3.916137e-02 2.431434e-02 3.473767e-05 4.535541e-02 3.590288e-02 3.644196e-02 4.922156e-02 5.967700e-02 7.122283e-02 
    31.5                2.088180e-02 2.540827e-02 1.579348e-03 3.700756e-02 2.271602e-02 3.232175e-05 4.278725e-02 3.356623e-02 3.408621e-02 4.598417e-02 5.602230e-02 6.692526e-02 
    32.5                1.914427e-02 2.375991e-02 1.257021e-03 3.445692e-02 2.095885e-02 2.962207e-05 3.978678e-02 3.090892e-02 3.140201e-02 4.240006e-02 5.186471e-02 6.200896e-02 
    33.5                1.719313e-02 2.192897e-02 9.938992e-04 3.148319e-02 1.900917e-02 2.683660e-05 3.631663e-02 2.796488e-02 2.841912e-02 3.843591e-02 4.723003e-02 5.648962e-02 
    34.5                1.524257e-02 1.980005e-02 7.743197e-04 2.825030e-02 1.695511e-02 2.386896e-05 3.256319e-02 2.485232e-02 2.526334e-02 3.425492e-02 4.226096e-02 5.056260e-02 
    35.5                1.330167e-02 1.763685e-02 5.871159e-04 2.497473e-02 1.490352e-02 2.095133e-05 2.876659e-02 2.175587e-02 2.212188e-02 3.008490e-02 3.727024e-02 4.460476e-02 
    36.5                1.141861e-02 1.544757e-02 4.311640e-04 2.174214e-02 1.290307e-02 1.807414e-05 2.502894e-02 1.873014e-02 1.904837e-02 2.602400e-02 3.233946e-02 3.872584e-02 
    37.5                9.593601e-03 1.335371e-02 3.107539e-04 1.858801e-02 1.098140e-02 1.537202e-05 2.138841e-02 1.584140e-02 1.611494e-02 2.212709e-02 2.759652e-02 3.305493e-02 
    38.5                7.797914e-03 1.130071e-02 2.170556e-04 1.550520e-02 9.123416e-03 1.274855e-05 1.783548e-02 1.306368e-02 1.328983e-02 1.836748e-02 2.295878e-02 2.751447e-02 
    39.5                6.060947e-03 9.335367e-03 1.467261e-04 1.248770e-02 7.323699e-03 1.025571e-05 1.436210e-02 1.041216e-02 1.059087e-02 1.473207e-02 1.848799e-02 2.215536e-02 
    40.5                4.479471e-03 7.398743e-03 9.455556e-05 9.610644e-03 5.621264e-03 7.919345e-06 1.105252e-02 7.934166e-03 8.068650e-03 1.129777e-02 1.424589e-02 1.706622e-02 
    41.5                3.159914e-03 5.596763e-03 5.814414e-05 7.043925e-03 4.111033e-03 5.855052e-06 8.100879e-03 5.768196e-03 5.863276e-03 8.255720e-03 1.048141e-02 1.254470e-02 
    42.5                2.109062e-03 4.020106e-03 3.403119e-05 4.920782e-03 2.866858e-03 4.102955e-06 5.659847e-03 3.988158e-03 4.052848e-03 5.752688e-03 7.330025e-03 8.770841e-03 
    43.5                1.262912e-03 2.765242e-03 1.877182e-05 3.221286e-03 1.874155e-03 2.702778e-06 3.705882e-03 2.586427e-03 2.626598e-03 3.758149e-03 4.811291e-03 5.753375e-03 
    44.5                6.568457e-04 1.755257e-03 9.675616e-06 1.893923e-03 1.100931e-03 1.641767e-06 2.179592e-03 1.518958e-03 1.540007e-03 2.206407e-03 2.867592e-03 3.418167e-03 
    45.5                2.724280e-04 9.798513e-04 4.394514e-06 9.588264e-04 5.569988e-04 8.708155e-07 1.103938e-03 7.716031e-04 7.805009e-04 1.115838e-03 1.479572e-03 1.755954e-03 
    46.5                7.990955e-05 4.574670e-04 1.720821e-06 3.871850e-04 2.248817e-04 3.878141e-07 4.460281e-04 3.192383e-04 3.219610e-04 4.504112e-04 6.260481e-04 7.352397e-04 
    47.5                1.562350e-05 1.575042e-04 5.398494e-07 1.136226e-04 6.600352e-05 1.339349e-07 1.309781e-04 9.826222e-05 9.837601e-05 1.322118e-04 1.978219e-04 2.287702e-04 
    48.5                1.409701e-06 3.798389e-05 1.180169e-07 2.282673e-05 1.326282e-05 3.249652e-08 2.633705e-05 2.112224e-05 2.100539e-05 2.657289e-05 4.391062e-05 4.978225e-05 
    49.5                1.245253e-08 5.282883e-06 1.678119e-08 2.438298e-06 1.418412e-06 4.866863e-09 2.818792e-06 2.603406e-06 2.568481e-06 2.844800e-06 5.670852e-06 6.215309e-06 
    50.5                0.000000e+00 1.526403e-07 5.216841e-10 4.569609e-08 2.664542e-08 1.587487e-10 5.318813e-08 6.750474e-08 6.526101e-08 5.363754e-08 1.563705e-07 1.630966e-07 
    51.5                0.000000e+00 0.000000e+00 0.000000e+00 0.000000e+00 0.000000e+00 0.000000e+00 0.000000e+00 0.000000e+00 0.000000e+00 0.000000e+00 0.000000e+00 0.000000e+00 
    52.5                0.000000e+00 0.000000e+00 0.000000e+00 0.000000e+00 0.000000e+00 0.000000e+00 0.000000e+00 0.000000e+00 0.000000e+00 0.000000e+00 0.000000e+00 0.000000e+00 
    53.5                0.000000e+00 0.000000e+00 0.000000e+00 0.000000e+00 0.000000e+00 0.000000e+00 0.000000e+00 0.000000e+00 0.000000e+00 0.000000e+00 0.000000e+00 0.000000e+00 
    54.5                0.000000e+00 0.000000e+00 0.000000e+00 0.000000e+00 0.000000e+00 0.000000e+00 0.000000e+00 0.000000e+00 0.000000e+00 0.000000e+00 0.000000e+00 0.000000e+00 
    55.5                0.000000e+00 0.000000e+00 0.000000e+00 0.000000e+00 0.000000e+00 0.000000e+00 0.000000e+00 0.000000e+00 0.000000e+00 0.000000e+00 0.000000e+00 0.000000e+00 
    56.5                0.000000e+00 0.000000e+00 0.000000e+00 0.000000e+00 0.000000e+00 0.000000e+00 0.000000e+00 0.000000e+00 0.000000e+00 0.000000e+00 0.000000e+00 0.000000e+00 
    57.5                0.000000e+00 0.000000e+00 0.000000e+00 0.000000e+00 0.000000e+00 0.000000e+00 0.000000e+00 0.000000e+00 0.000000e+00 0.000000e+00 0.000000e+00 0.000000e+00 
    58.5                0.000000e+00 0.000000e+00 0.000000e+00 0.000000e+00 0.000000e+00 0.000000e+00 0.000000e+00 0.000000e+00 0.000000e+00 0.000000e+00 0.000000e+00 0.000000e+00 
    59.5                0.000000e+00 0.000000e+00 0.000000e+00 0.000000e+00 0.000000e+00 0.000000e+00 0.000000e+00 0.000000e+00 0.000000e+00 0.000000e+00 0.000000e+00 0.000000e+00 
    60.5                0.000000e+00 0.000000e+00 0.000000e+00 0.000000e+00 0.000000e+00 0.000000e+00 0.000000e+00 0.000000e+00 0.000000e+00 0.000000e+00 0.000000e+00 0.000000e+00 
    61.5                0.000000e+00 0.000000e+00 0.000000e+00 0.000000e+00 0.000000e+00 0.000000e+00 0.000000e+00 0.000000e+00 0.000000e+00 0.000000e+00 0.000000e+00 0.000000e+00 
    62.5                0.000000e+00 0.000000e+00 0.000000e+00 0.000000e+00 0.000000e+00 0.000000e+00 0.000000e+00 0.000000e+00 0.000000e+00 0.000000e+00 0.000000e+00 0.000000e+00 
    63.5                0.000000e+00 0.000000e+00 0.000000e+00 0.000000e+00 0.000000e+00 0.000000e+00 0.000000e+00 0.000000e+00 0.000000e+00 0.000000e+00 0.000000e+00 0.000000e+00 
    64.5                0.000000e+00 0.000000e+00 0.000000e+00 0.000000e+00 0.000000e+00 0.000000e+00 0.000000e+00 0.000000e+00 0.000000e+00 0.000000e+00 0.000000e+00 0.000000e+00 
    65.5                0.000000e+00 0.000000e+00 0.000000e+00 0.000000e+00 0.000000e+00 0.000000e+00 0.000000e+00 0.000000e+00 0.000000e+00 0.000000e+00 0.000000e+00 0.000000e+00 
    66.5                0.000000e+00 0.000000e+00 0.000000e+00 0.000000e+00 0.000000e+00 0.000000e+00 0.000000e+00 0.000000e+00 0.000000e+00 0.000000e+00 0.000000e+00 0.000000e+00 
    67.5                0.000000e+00 0.000000e+00 0.000000e+00 0.000000e+00 0.000000e+00 0.000000e+00 0.000000e+00 0.000000e+00 0.000000e+00 0.000000e+00 0.000000e+00 0.000000e+00 
    68.5                0.000000e+00 0.000000e+00 0.000000e+00 0.000000e+00 0.000000e+00 0.000000e+00 0.000000e+00 0.000000e+00 0.000000e+00 0.000000e+00 0.000000e+00 0.000000e+00 
    69.5                0.000000e+00 0.000000e+00 0.000000e+00 0.000000e+00 0.000000e+00 0.000000e+00 0.000000e+00 0.000000e+00 0.000000e+00 0.000000e+00 0.000000e+00 0.000000e+00 
    70.5                0.000000e+00 0.000000e+00 0.000000e+00 0.000000e+00 0.000000e+00 0.000000e+00 0.000000e+00 0.000000e+00 0.000000e+00 0.000000e+00 0.000000e+00 0.000000e+00 
    71.5                0.000000e+00 0.000000e+00 0.000000e+00 0.000000e+00 0.000000e+00 0.000000e+00 0.000000e+00 0.000000e+00 0.000000e+00 0.000000e+00 0.000000e+00 0.000000e+00 
    72.5                0.000000e+00 0.000000e+00 0.000000e+00 0.000000e+00 0.000000e+00 0.000000e+00 0.000000e+00 0.000000e+00 0.000000e+00 0.000000e+00 0.000000e+00 0.000000e+00 
    73.5                0.000000e+00 0.000000e+00 0.000000e+00 0.000000e+00 0.000000e+00 0.000000e+00 0.000000e+00 0.000000e+00 0.000000e+00 0.000000e+00 0.000000e+00 0.000000e+00 
    74.5                0.000000e+00 0.000000e+00 0.000000e+00 0.000000e+00 0.000000e+00 0.000000e+00 0.000000e+00 0.000000e+00 0.000000e+00 0.000000e+00 0.000000e+00 0.000000e+00 
    75.5                0.000000e+00 0.000000e+00 0.000000e+00 0.000000e+00 0.000000e+00 0.000000e+00 0.000000e+00 0.000000e+00 0.000000e+00 0.000000e+00 0.000000e+00 0.000000e+00 
    76.5                0.000000e+00 0.000000e+00 0.000000e+00 0.000000e+00 0.000000e+00 0.000000e+00 0.000000e+00 0.000000e+00 0.000000e+00 0.000000e+00 0.000000e+00 0.000000e+00 
    77.5                0.000000e+00 0.000000e+00 0.000000e+00 0.000000e+00 0.000000e+00 0.000000e+00 0.000000e+00 0.000000e+00 0.000000e+00 0.000000e+00 0.000000e+00 0.000000e+00 
    78.5                0.000000e+00 0.000000e+00 0.000000e+00 0.000000e+00 0.000000e+00 0.000000e+00 0.000000e+00 0.000000e+00 0.000000e+00 0.000000e+00 0.000000e+00 0.000000e+00 
    79.5                0.000000e+00 0.000000e+00 0.000000e+00 0.000000e+00 0.000000e+00 0.000000e+00 0.000000e+00 0.000000e+00 0.000000e+00 0.000000e+00 0.000000e+00 0.000000e+00 


