# 80 rows of flux data
# 12 columns of flux data
# 
# total cross-sectional flux  2.395023e+00 /m^2/yr
#
#                             +x ram      -x wake      +y port -y starboard    +z zenith     -z nadir        Earth          Sun     anti-Sun      rot (x)      rot (y)      rot (z) 
# average speed (km/s)         24.34        25.15        24.75        24.75        20.16        28.88        24.77        25.13        25.13        24.14        24.16        24.76 
# total flux (#/m2/yr)  6.765085e-01 7.909458e-01 7.320750e-01 7.328767e-01 4.331333e-01 3.167110e-03 7.312215e-01 1.051099e+00 1.051236e+00 1.616796e+00 1.619297e+00 2.303097e+00 
# velocity (km/s)
     0.5                0.000000e+00 0.000000e+00 0.000000e+00 0.000000e+00 0.000000e+00 0.000000e+00 0.000000e+00 0.000000e+00 0.000000e+00 0.000000e+00 0.000000e+00 0.000000e+00 
     1.5                0.000000e+00 0.000000e+00 0.000000e+00 0.000000e+00 0.000000e+00 0.000000e+00 0.000000e+00 0.000000e+00 0.000000e+00 0.000000e+00 0.000000e+00 0.000000e+00 
     2.5                5.449124e-06 0.000000e+00 1.216794e-06 1.195471e-06 2.396751e-06 0.000000e+00 1.179160e-06 8.226177e-07 8.229658e-07 3.627938e-06 6.018798e-06 6.217484e-06 
     3.5                1.450068e-04 7.163183e-06 7.340533e-05 7.312473e-05 7.276994e-05 4.911769e-08 7.315221e-05 5.183355e-05 5.187902e-05 1.751777e-04 1.777771e-04 2.351479e-04 
     4.5                6.083597e-04 1.852736e-04 3.894636e-04 3.882283e-04 3.832160e-04 5.274323e-07 3.880599e-04 2.877433e-04 2.880147e-04 9.339633e-04 9.428492e-04 1.233753e-03 
     5.5                1.569849e-03 7.144788e-04 1.195871e-03 1.193940e-03 1.282552e-03 2.026372e-06 1.195226e-03 9.658377e-04 9.662555e-04 2.931838e-03 2.837585e-03 3.673167e-03 
     6.5                2.904863e-03 2.118923e-03 2.553175e-03 2.553160e-03 2.879572e-03 4.971262e-06 2.553327e-03 2.208480e-03 2.208913e-03 6.335567e-03 6.276768e-03 7.955744e-03 
     7.5                5.109449e-03 3.818539e-03 4.465424e-03 4.460349e-03 5.235853e-03 8.397032e-06 4.458863e-03 4.079910e-03 4.079985e-03 1.122529e-02 1.123675e-02 1.401954e-02 
     8.5                7.564922e-03 6.373018e-03 7.110044e-03 7.109536e-03 8.161444e-03 1.234475e-05 7.106531e-03 6.689782e-03 6.689877e-03 1.774942e-02 1.749877e-02 2.211225e-02 
     9.5                9.609456e-03 9.673061e-03 9.846784e-03 9.852337e-03 1.142030e-02 1.722416e-05 9.840135e-03 9.848761e-03 9.847303e-03 2.465357e-02 2.432349e-02 3.061745e-02 
    10.5                1.163571e-02 1.291578e-02 1.222797e-02 1.223452e-02 1.478553e-02 2.180862e-05 1.220172e-02 1.338932e-02 1.338982e-02 3.103335e-02 3.115785e-02 3.849495e-02 
    11.5                1.346433e-02 1.516250e-02 1.438730e-02 1.439575e-02 1.751823e-02 2.657439e-05 1.434991e-02 1.689605e-02 1.689621e-02 3.668660e-02 3.662212e-02 4.509037e-02 
    12.5                1.473496e-02 1.740789e-02 1.600477e-02 1.601305e-02 1.926626e-02 3.135100e-05 1.594903e-02 2.005319e-02 2.005535e-02 4.080306e-02 4.090612e-02 5.039807e-02 
    13.5                1.676085e-02 1.879012e-02 1.761542e-02 1.762058e-02 2.055789e-02 3.589866e-05 1.754236e-02 2.314790e-02 2.314813e-02 4.456111e-02 4.484614e-02 5.558664e-02 
    14.5                1.850870e-02 2.053275e-02 1.950060e-02 1.950818e-02 2.140824e-02 4.098142e-05 1.941635e-02 2.644105e-02 2.644137e-02 4.847857e-02 4.851135e-02 6.130000e-02 
    15.5                2.020668e-02 2.235752e-02 2.126742e-02 2.127839e-02 2.164860e-02 4.765491e-05 2.117553e-02 2.962583e-02 2.962805e-02 5.180652e-02 5.180681e-02 6.685168e-02 
    16.5                2.172285e-02 2.434092e-02 2.298573e-02 2.300243e-02 2.182458e-02 5.479569e-05 2.288804e-02 3.264202e-02 3.264211e-02 5.501844e-02 5.509919e-02 7.229362e-02 
    17.5                2.320466e-02 2.581510e-02 2.442789e-02 2.444337e-02 2.152123e-02 6.138821e-05 2.431981e-02 3.537131e-02 3.537364e-02 5.744218e-02 5.755546e-02 7.688274e-02 
    18.5                2.431634e-02 2.718629e-02 2.575215e-02 2.576909e-02 2.094236e-02 6.793749e-05 2.564120e-02 3.783490e-02 3.783586e-02 5.947437e-02 5.944756e-02 8.091761e-02 
    19.5                2.526593e-02 2.850441e-02 2.681258e-02 2.683387e-02 2.044750e-02 7.567431e-05 2.670029e-02 3.990521e-02 3.990719e-02 6.113600e-02 6.125959e-02 8.436384e-02 
    20.5                2.611831e-02 2.930311e-02 2.761430e-02 2.763923e-02 1.959362e-02 8.380928e-05 2.750627e-02 4.145569e-02 4.145815e-02 6.216843e-02 6.231433e-02 8.692482e-02 
    21.5                2.730882e-02 2.999950e-02 2.858362e-02 2.860769e-02 1.874427e-02 9.259380e-05 2.847887e-02 4.312478e-02 4.312826e-02 6.348471e-02 6.357461e-02 8.992664e-02 
    22.5                2.803841e-02 3.112150e-02 2.959468e-02 2.962091e-02 1.825423e-02 1.000704e-04 2.949425e-02 4.478323e-02 4.478550e-02 6.512510e-02 6.507557e-02 9.297221e-02 
    23.5                2.843666e-02 3.200874e-02 3.016763e-02 3.019212e-02 1.736308e-02 1.064998e-04 3.006711e-02 4.577771e-02 4.578113e-02 6.569071e-02 6.577374e-02 9.487692e-02 
    24.5                2.873006e-02 3.228584e-02 3.044984e-02 3.047540e-02 1.635837e-02 1.129283e-04 3.035680e-02 4.624974e-02 4.625387e-02 6.572470e-02 6.580463e-02 9.577222e-02 
    25.5                2.878133e-02 3.253168e-02 3.063012e-02 3.066000e-02 1.521578e-02 1.198115e-04 3.055218e-02 4.647292e-02 4.647613e-02 6.552510e-02 6.554788e-02 9.629276e-02 
    26.5                2.823875e-02 3.259168e-02 3.039297e-02 3.042556e-02 1.401460e-02 1.256208e-04 3.032995e-02 4.606372e-02 4.606843e-02 6.454543e-02 6.454453e-02 9.554386e-02 
    27.5                2.769475e-02 3.208226e-02 2.977483e-02 2.980922e-02 1.278474e-02 1.297336e-04 2.972293e-02 4.510468e-02 4.511045e-02 6.282759e-02 6.301214e-02 9.374613e-02 
    28.5                2.697062e-02 3.125091e-02 2.907547e-02 2.911258e-02 1.160209e-02 1.334359e-04 2.904257e-02 4.386051e-02 4.386610e-02 6.100645e-02 6.102854e-02 9.142740e-02 
    29.5                2.594658e-02 3.049648e-02 2.816144e-02 2.820059e-02 1.042716e-02 1.373248e-04 2.814449e-02 4.235883e-02 4.236482e-02 5.876743e-02 5.884778e-02 8.859386e-02 
    30.5                2.472600e-02 2.933163e-02 2.696953e-02 2.701005e-02 9.233518e-03 1.395135e-04 2.696893e-02 4.040834e-02 4.041381e-02 5.600534e-02 5.607476e-02 8.485181e-02 
    31.5                2.336027e-02 2.799274e-02 2.560312e-02 2.564147e-02 8.017493e-03 1.409969e-04 2.561591e-02 3.817714e-02 3.818469e-02 5.290392e-02 5.300589e-02 8.057886e-02 
    32.5                2.166520e-02 2.644204e-02 2.402300e-02 2.406017e-02 6.860844e-03 1.408122e-04 2.405219e-02 3.556672e-02 3.557433e-02 4.942764e-02 4.944119e-02 7.554867e-02 
    33.5                1.963490e-02 2.470041e-02 2.210252e-02 2.214085e-02 5.808576e-03 1.374957e-04 2.214537e-02 3.252242e-02 3.252920e-02 4.532214e-02 4.540681e-02 6.957029e-02 
    34.5                1.766317e-02 2.250201e-02 1.999406e-02 2.002698e-02 4.832273e-03 1.319048e-04 2.004349e-02 2.922940e-02 2.923564e-02 4.087298e-02 4.101182e-02 6.297899e-02 
    35.5                1.569423e-02 2.026733e-02 1.789015e-02 1.792365e-02 3.916225e-03 1.261536e-04 1.794943e-02 2.596270e-02 2.596972e-02 3.646619e-02 3.660589e-02 5.637310e-02 
    36.5                1.374180e-02 1.803871e-02 1.582353e-02 1.585616e-02 3.086814e-03 1.200619e-04 1.589332e-02 2.275880e-02 2.276416e-02 3.215904e-02 3.225291e-02 4.984041e-02 
    37.5                1.177029e-02 1.589244e-02 1.376100e-02 1.379035e-02 2.385029e-03 1.123277e-04 1.383434e-02 1.961929e-02 1.962674e-02 2.789684e-02 2.800224e-02 4.336296e-02 
    38.5                9.802579e-03 1.369708e-02 1.169103e-02 1.171740e-02 1.791241e-03 1.024989e-04 1.176588e-02 1.651068e-02 1.651697e-02 2.364880e-02 2.373575e-02 3.684156e-02 
    39.5                7.842395e-03 1.154558e-02 9.632849e-03 9.653942e-03 1.293010e-03 9.106073e-05 9.703584e-03 1.347129e-02 1.347658e-02 1.944738e-02 1.954368e-02 3.037436e-02 
    40.5                5.973476e-03 9.378238e-03 7.607818e-03 7.626848e-03 8.866376e-04 7.749371e-05 7.673327e-03 1.053836e-02 1.054350e-02 1.533618e-02 1.544903e-02 2.402269e-02 
    41.5                4.387624e-03 7.286477e-03 5.748228e-03 5.762226e-03 5.750271e-04 6.339938e-05 5.802423e-03 7.900518e-03 7.904840e-03 1.157092e-02 1.173121e-02 1.820861e-02 
    42.5                3.061348e-03 5.402653e-03 4.168355e-03 4.176509e-03 3.518925e-04 4.956655e-05 4.209733e-03 5.664407e-03 5.667727e-03 8.378846e-03 8.495609e-03 1.320176e-02 
    43.5                1.914425e-03 3.858190e-03 2.835254e-03 2.841887e-03 2.018951e-04 3.621356e-05 2.866336e-03 3.814222e-03 3.817239e-03 5.695131e-03 5.789145e-03 8.993045e-03 
    44.5                1.044500e-03 2.538247e-03 1.731439e-03 1.736692e-03 1.048851e-04 2.387473e-05 1.752261e-03 2.322210e-03 2.324055e-03 3.476923e-03 3.590432e-03 5.537850e-03 
    45.5                4.531088e-04 1.468264e-03 9.095321e-04 9.133882e-04 4.737060e-05 1.349810e-05 9.215196e-04 1.219583e-03 1.220717e-03 1.826679e-03 1.924459e-03 2.940507e-03 
    46.5                1.390812e-04 7.075997e-04 3.799001e-04 3.813906e-04 1.780744e-05 6.141303e-06 3.843481e-04 5.182322e-04 5.190245e-04 7.626674e-04 8.477109e-04 1.262609e-03 
    47.5                2.862697e-05 2.498864e-04 1.150422e-04 1.156595e-04 5.085793e-06 2.093348e-06 1.162938e-04 1.626332e-04 1.628887e-04 2.311028e-04 2.787658e-04 4.000694e-04 
    48.5                2.771922e-06 6.180879e-05 2.381287e-05 2.399440e-05 1.027922e-06 5.009218e-07 2.403230e-05 3.556324e-05 3.561483e-05 4.788920e-05 6.462395e-05 8.828071e-05 
    49.5                3.251464e-08 8.749195e-06 2.639596e-06 2.643043e-06 1.225149e-07 6.747053e-08 2.629008e-06 4.412737e-06 4.432611e-06 5.293769e-06 8.785402e-06 1.103467e-05 
    50.5                0.000000e+00 2.581887e-07 5.327954e-08 5.195239e-08 3.078076e-09 1.972819e-09 5.073542e-08 1.154946e-07 1.147761e-07 1.055987e-07 2.582515e-07 2.883866e-07 
    51.5                0.000000e+00 0.000000e+00 0.000000e+00 0.000000e+00 0.000000e+00 0.000000e+00 0.000000e+00 0.000000e+00 0.000000e+00 0.000000e+00 0.000000e+00 0.000000e+00 
    52.5                0.000000e+00 0.000000e+00 0.000000e+00 0.000000e+00 0.000000e+00 0.000000e+00 0.000000e+00 0.000000e+00 0.000000e+00 0.000000e+00 0.000000e+00 0.000000e+00 
    53.5                0.000000e+00 0.000000e+00 0.000000e+00 0.000000e+00 0.000000e+00 0.000000e+00 0.000000e+00 0.000000e+00 0.000000e+00 0.000000e+00 0.000000e+00 0.000000e+00 
    54.5                0.000000e+00 0.000000e+00 0.000000e+00 0.000000e+00 0.000000e+00 0.000000e+00 0.000000e+00 0.000000e+00 0.000000e+00 0.000000e+00 0.000000e+00 0.000000e+00 
    55.5                0.000000e+00 0.000000e+00 0.000000e+00 0.000000e+00 0.000000e+00 0.000000e+00 0.000000e+00 0.000000e+00 0.000000e+00 0.000000e+00 0.000000e+00 0.000000e+00 
    56.5                0.000000e+00 0.000000e+00 0.000000e+00 0.000000e+00 0.000000e+00 0.000000e+00 0.000000e+00 0.000000e+00 0.000000e+00 0.000000e+00 0.000000e+00 0.000000e+00 
    57.5                0.000000e+00 0.000000e+00 0.000000e+00 0.000000e+00 0.000000e+00 0.000000e+00 0.000000e+00 0.000000e+00 0.000000e+00 0.000000e+00 0.000000e+00 0.000000e+00 
    58.5                0.000000e+00 0.000000e+00 0.000000e+00 0.000000e+00 0.000000e+00 0.000000e+00 0.000000e+00 0.000000e+00 0.000000e+00 0.000000e+00 0.000000e+00 0.000000e+00 
    59.5                0.000000e+00 0.000000e+00 0.000000e+00 0.000000e+00 0.000000e+00 0.000000e+00 0.000000e+00 0.000000e+00 0.000000e+00 0.000000e+00 0.000000e+00 0.000000e+00 
    60.5                0.000000e+00 0.000000e+00 0.000000e+00 0.000000e+00 0.000000e+00 0.000000e+00 0.000000e+00 0.000000e+00 0.000000e+00 0.000000e+00 0.000000e+00 0.000000e+00 
    61.5                0.000000e+00 0.000000e+00 0.000000e+00 0.000000e+00 0.000000e+00 0.000000e+00 0.000000e+00 0.000000e+00 0.000000e+00 0.000000e+00 0.000000e+00 0.000000e+00 
    62.5                0.000000e+00 0.000000e+00 0.000000e+00 0.000000e+00 0.000000e+00 0.000000e+00 0.000000e+00 0.000000e+00 0.000000e+00 0.000000e+00 0.000000e+00 0.000000e+00 
    63.5                0.000000e+00 0.000000e+00 0.000000e+00 0.000000e+00 0.000000e+00 0.000000e+00 0.000000e+00 0.000000e+00 0.000000e+00 0.000000e+00 0.000000e+00 0.000000e+00 
    64.5                0.000000e+00 0.000000e+00 0.000000e+00 0.000000e+00 0.000000e+00 0.000000e+00 0.000000e+00 0.000000e+00 0.000000e+00 0.000000e+00 0.000000e+00 0.000000e+00 
    65.5                0.000000e+00 0.000000e+00 0.000000e+00 0.000000e+00 0.000000e+00 0.000000e+00 0.000000e+00 0.000000e+00 0.000000e+00 0.000000e+00 0.000000e+00 0.000000e+00 
    66.5                0.000000e+00 0.000000e+00 0.000000e+00 0.000000e+00 0.000000e+00 0.000000e+00 0.000000e+00 0.000000e+00 0.000000e+00 0.000000e+00 0.000000e+00 0.000000e+00 
    67.5                0.000000e+00 0.000000e+00 0.000000e+00 0.000000e+00 0.000000e+00 0.000000e+00 0.000000e+00 0.000000e+00 0.000000e+00 0.000000e+00 0.000000e+00 0.000000e+00 
    68.5                0.000000e+00 0.000000e+00 0.000000e+00 0.000000e+00 0.000000e+00 0.000000e+00 0.000000e+00 0.000000e+00 0.000000e+00 0.000000e+00 0.000000e+00 0.000000e+00 
    69.5                0.000000e+00 0.000000e+00 0.000000e+00 0.000000e+00 0.000000e+00 0.000000e+00 0.000000e+00 0.000000e+00 0.000000e+00 0.000000e+00 0.000000e+00 0.000000e+00 
    70.5                0.000000e+00 0.000000e+00 0.000000e+00 0.000000e+00 0.000000e+00 0.000000e+00 0.000000e+00 0.000000e+00 0.000000e+00 0.000000e+00 0.000000e+00 0.000000e+00 
    71.5                0.000000e+00 0.000000e+00 0.000000e+00 0.000000e+00 0.000000e+00 0.000000e+00 0.000000e+00 0.000000e+00 0.000000e+00 0.000000e+00 0.000000e+00 0.000000e+00 
    72.5                0.000000e+00 0.000000e+00 0.000000e+00 0.000000e+00 0.000000e+00 0.000000e+00 0.000000e+00 0.000000e+00 0.000000e+00 0.000000e+00 0.000000e+00 0.000000e+00 
    73.5                0.000000e+00 0.000000e+00 0.000000e+00 0.000000e+00 0.000000e+00 0.000000e+00 0.000000e+00 0.000000e+00 0.000000e+00 0.000000e+00 0.000000e+00 0.000000e+00 
    74.5                0.000000e+00 0.000000e+00 0.000000e+00 0.000000e+00 0.000000e+00 0.000000e+00 0.000000e+00 0.000000e+00 0.000000e+00 0.000000e+00 0.000000e+00 0.000000e+00 
    75.5                0.000000e+00 0.000000e+00 0.000000e+00 0.000000e+00 0.000000e+00 0.000000e+00 0.000000e+00 0.000000e+00 0.000000e+00 0.000000e+00 0.000000e+00 0.000000e+00 
    76.5                0.000000e+00 0.000000e+00 0.000000e+00 0.000000e+00 0.000000e+00 0.000000e+00 0.000000e+00 0.000000e+00 0.000000e+00 0.000000e+00 0.000000e+00 0.000000e+00 
    77.5                0.000000e+00 0.000000e+00 0.000000e+00 0.000000e+00 0.000000e+00 0.000000e+00 0.000000e+00 0.000000e+00 0.000000e+00 0.000000e+00 0.000000e+00 0.000000e+00 
    78.5                0.000000e+00 0.000000e+00 0.000000e+00 0.000000e+00 0.000000e+00 0.000000e+00 0.000000e+00 0.000000e+00 0.000000e+00 0.000000e+00 0.000000e+00 0.000000e+00 
    79.5                0.000000e+00 0.000000e+00 0.000000e+00 0.000000e+00 0.000000e+00 0.000000e+00 0.000000e+00 0.000000e+00 0.000000e+00 0.000000e+00 0.000000e+00 0.000000e+00 


