# 80 rows of flux data
# 12 columns of flux data
# 
# total cross-sectional flux  1.021983e+00 /m^2/yr
#
#                             +x ram      -x wake      +y port -y starboard    +z zenith     -z nadir        Earth          Sun     anti-Sun      rot (x)      rot (y)      rot (z) 
# average speed (km/s)         37.73        37.74        30.34        44.48        32.58        43.47        37.78        28.15        28.15        33.90        34.97        36.11 
# total flux (#/m2/yr)  2.321412e-01 2.321284e-01 3.629162e-01 1.600121e-01 5.417327e-01 2.815435e-04 2.316285e-01 1.625859e-01 1.625785e-01 8.463876e-01 7.870756e-01 7.727518e-01 
# velocity (km/s)
     0.5                0.000000e+00 0.000000e+00 0.000000e+00 0.000000e+00 0.000000e+00 0.000000e+00 0.000000e+00 0.000000e+00 0.000000e+00 0.000000e+00 0.000000e+00 0.000000e+00 
     1.5                0.000000e+00 0.000000e+00 0.000000e+00 0.000000e+00 0.000000e+00 0.000000e+00 0.000000e+00 0.000000e+00 0.000000e+00 0.000000e+00 0.000000e+00 0.000000e+00 
     2.5                9.032814e-05 9.100535e-05 4.032655e-05 1.132743e-04 1.832263e-04 5.196968e-08 9.046277e-05 9.193763e-05 9.202200e-05 2.661959e-04 2.854836e-04 2.630080e-04 
     3.5                4.554881e-04 4.556949e-04 3.209508e-04 4.790505e-04 8.121956e-04 4.780823e-07 4.533342e-04 4.638647e-04 4.636511e-04 1.284784e-03 1.355858e-03 1.339516e-03 
     4.5                8.998891e-04 8.994285e-04 8.312061e-04 8.285438e-04 1.603720e-03 1.135306e-06 8.947258e-04 9.545604e-04 9.543830e-04 2.599930e-03 2.680528e-03 2.705029e-03 
     5.5                1.372645e-03 1.371631e-03 1.473666e-03 1.174261e-03 2.559955e-03 1.766465e-06 1.364169e-03 1.516820e-03 1.516554e-03 4.146540e-03 4.170887e-03 4.216754e-03 
     6.5                1.837015e-03 1.835695e-03 2.328264e-03 1.444541e-03 3.665641e-03 2.350204e-06 1.825961e-03 2.081923e-03 2.081711e-03 5.901251e-03 5.772137e-03 5.828718e-03 
     7.5                2.267884e-03 2.265574e-03 3.228407e-03 1.647579e-03 4.869244e-03 2.789561e-06 2.253311e-03 2.611776e-03 2.611408e-03 7.706595e-03 7.390728e-03 7.361114e-03 
     8.5                2.673036e-03 2.670763e-03 4.166566e-03 1.858443e-03 6.044317e-03 3.162684e-06 2.656375e-03 3.146045e-03 3.145901e-03 9.510241e-03 8.951266e-03 8.906703e-03 
     9.5                2.994519e-03 2.991669e-03 5.048655e-03 1.929839e-03 7.156882e-03 3.431971e-06 2.975056e-03 3.592431e-03 3.592111e-03 1.111301e-02 1.033417e-02 1.015276e-02 
    10.5                3.309958e-03 3.307389e-03 5.900601e-03 2.068322e-03 8.316563e-03 3.653632e-06 3.288307e-03 4.053321e-03 4.053179e-03 1.277218e-02 1.174178e-02 1.142629e-02 
    11.5                3.600360e-03 3.596886e-03 6.942862e-03 2.076527e-03 9.596694e-03 3.796306e-06 3.576618e-03 4.475242e-03 4.474892e-03 1.455387e-02 1.323217e-02 1.271690e-02 
    12.5                3.828604e-03 3.825255e-03 7.755412e-03 2.081726e-03 1.057812e-02 3.769045e-06 3.803669e-03 4.778454e-03 4.778209e-03 1.592479e-02 1.434674e-02 1.370120e-02 
    13.5                3.913100e-03 3.908858e-03 8.541642e-03 2.054639e-03 1.138197e-02 3.720645e-06 3.888863e-03 4.918253e-03 4.917825e-03 1.706667e-02 1.515078e-02 1.447039e-02 
    14.5                3.948298e-03 3.944686e-03 8.762754e-03 2.002555e-03 1.198583e-02 3.598050e-06 3.923923e-03 4.986925e-03 4.986725e-03 1.765886e-02 1.571855e-02 1.465324e-02 
    15.5                4.069514e-03 4.066140e-03 9.563185e-03 1.957768e-03 1.286080e-02 3.528382e-06 4.045449e-03 5.126514e-03 5.126349e-03 1.885655e-02 1.660210e-02 1.544962e-02 
    16.5                4.075652e-03 4.072003e-03 9.722374e-03 1.921997e-03 1.313787e-02 3.431698e-06 4.051404e-03 5.155570e-03 5.155341e-03 1.916646e-02 1.684267e-02 1.556608e-02 
    17.5                4.099148e-03 4.096807e-03 1.000997e-02 1.828813e-03 1.348429e-02 3.361229e-06 4.076831e-03 5.115499e-03 5.115418e-03 1.956974e-02 1.715812e-02 1.575330e-02 
    18.5                4.121676e-03 4.118440e-03 1.028543e-02 1.774637e-03 1.391289e-02 3.230881e-06 4.098337e-03 5.094507e-03 5.094278e-03 2.006044e-02 1.752720e-02 1.595466e-02 
    19.5                4.128070e-03 4.125928e-03 1.037691e-02 1.659707e-03 1.398398e-02 3.123391e-06 4.106216e-03 4.987372e-03 4.987227e-03 2.011513e-02 1.756692e-02 1.592733e-02 
    20.5                4.030063e-03 4.027661e-03 1.027367e-02 1.562806e-03 1.379884e-02 3.015871e-06 4.008457e-03 4.820555e-03 4.820681e-03 1.984046e-02 1.724569e-02 1.560035e-02 
    21.5                4.018557e-03 4.016305e-03 1.026963e-02 1.502607e-03 1.396886e-02 2.754678e-06 3.997636e-03 4.713593e-03 4.713369e-03 1.992852e-02 1.735509e-02 1.553759e-02 
    22.5                4.027240e-03 4.025318e-03 1.053399e-02 1.371709e-03 1.408184e-02 2.634322e-06 4.008118e-03 4.578110e-03 4.577985e-03 2.010888e-02 1.743204e-02 1.563535e-02 
    23.5                3.817767e-03 3.815710e-03 1.000139e-02 1.294756e-03 1.333212e-02 2.441671e-06 3.799456e-03 4.292383e-03 4.292776e-03 1.908563e-02 1.648905e-02 1.482920e-02 
    24.5                3.676137e-03 3.674379e-03 9.509593e-03 1.186750e-03 1.283354e-02 2.274201e-06 3.658020e-03 4.041113e-03 4.041032e-03 1.827436e-02 1.584579e-02 1.411102e-02 
    25.5                3.592233e-03 3.591405e-03 9.360054e-03 1.151669e-03 1.251119e-02 2.141124e-06 3.575721e-03 3.847277e-03 3.847360e-03 1.788439e-02 1.543311e-02 1.382642e-02 
    26.5                3.505496e-03 3.504214e-03 8.899215e-03 1.062325e-03 1.210404e-02 2.117477e-06 3.488986e-03 3.630518e-03 3.630350e-03 1.719872e-02 1.494617e-02 1.323410e-02 
    27.5                3.406774e-03 3.405263e-03 8.628863e-03 9.621517e-04 1.155310e-02 1.995115e-06 3.391021e-03 3.421756e-03 3.421784e-03 1.651413e-02 1.430010e-02 1.277776e-02 
    28.5                3.279335e-03 3.279057e-03 8.224710e-03 8.679162e-04 1.107242e-02 1.838218e-06 3.265834e-03 3.167679e-03 3.167894e-03 1.580348e-02 1.370254e-02 1.218454e-02 
    29.5                3.112161e-03 3.110966e-03 7.903823e-03 7.686470e-04 1.039363e-02 1.707543e-06 3.099346e-03 2.871532e-03 2.871776e-03 1.494611e-02 1.288606e-02 1.158911e-02 
    30.5                2.937401e-03 2.936393e-03 7.434617e-03 6.868093e-04 9.977320e-03 1.525115e-06 2.925797e-03 2.668748e-03 2.668594e-03 1.422145e-02 1.229645e-02 1.089050e-02 
    31.5                2.903875e-03 2.903002e-03 7.180084e-03 6.321853e-04 9.700012e-03 1.350643e-06 2.892600e-03 2.510755e-03 2.511053e-03 1.380209e-02 1.197909e-02 1.057689e-02 
    32.5                2.807827e-03 2.807833e-03 6.832726e-03 6.120984e-04 9.071051e-03 1.232321e-06 2.798747e-03 2.314065e-03 2.314089e-03 1.306903e-02 1.130792e-02 1.015661e-02 
    33.5                2.788123e-03 2.788279e-03 6.507253e-03 5.837923e-04 8.831858e-03 1.209160e-06 2.779811e-03 2.143526e-03 2.143777e-03 1.268058e-02 1.106430e-02 9.836350e-03 
    34.5                2.829957e-03 2.828501e-03 6.621530e-03 5.415271e-04 8.847743e-03 1.108241e-06 2.820537e-03 2.062654e-03 2.062780e-03 1.275470e-02 1.110628e-02 9.953023e-03 
    35.5                2.726504e-03 2.728738e-03 6.156280e-03 5.821120e-04 8.133881e-03 1.123583e-06 2.721410e-03 1.936263e-03 1.936282e-03 1.191795e-02 1.037316e-02 9.482123e-03 
    36.5                2.722264e-03 2.722397e-03 5.902983e-03 5.628221e-04 8.003089e-03 1.121497e-06 2.715752e-03 1.804042e-03 1.804194e-03 1.165916e-02 1.026430e-02 9.250953e-03 
    37.5                2.799474e-03 2.800702e-03 6.044357e-03 6.790307e-04 8.062528e-03 1.341566e-06 2.795439e-03 1.750825e-03 1.750967e-03 1.190590e-02 1.040843e-02 9.586024e-03 
    38.5                2.883189e-03 2.884375e-03 5.772364e-03 7.771697e-04 8.029649e-03 1.486189e-06 2.879243e-03 1.690081e-03 1.690269e-03 1.181276e-02 1.051154e-02 9.598680e-03 
    39.5                2.953803e-03 2.955923e-03 5.914246e-03 7.394139e-04 7.772470e-03 1.781479e-06 2.951416e-03 1.642766e-03 1.642754e-03 1.172990e-02 1.042020e-02 9.772740e-03 
    40.5                2.936683e-03 2.938034e-03 5.733206e-03 8.005885e-04 7.708450e-03 1.784254e-06 2.933214e-03 1.575815e-03 1.575975e-03 1.160595e-02 1.033486e-02 9.664763e-03 
    41.5                3.162806e-03 3.164183e-03 5.705580e-03 1.110129e-03 7.903495e-03 2.247344e-06 3.160061e-03 1.574033e-03 1.574295e-03 1.202925e-02 1.082232e-02 1.026505e-02 
    42.5                3.254146e-03 3.254566e-03 5.779070e-03 1.164094e-03 7.520705e-03 2.842168e-06 3.251217e-03 1.565796e-03 1.565715e-03 1.186560e-02 1.068253e-02 1.050509e-02 
    43.5                3.254322e-03 3.256975e-03 5.348882e-03 1.557154e-03 7.345518e-03 3.830388e-06 3.254019e-03 1.536242e-03 1.536149e-03 1.175212e-02 1.058473e-02 1.050650e-02 
    44.5                3.552722e-03 3.553560e-03 5.444198e-03 1.827436e-03 7.743616e-03 5.398398e-06 3.551371e-03 1.583823e-03 1.584076e-03 1.245510e-02 1.137283e-02 1.127989e-02 
    45.5                3.678863e-03 3.683089e-03 5.607633e-03 2.008438e-03 7.600923e-03 6.152305e-06 3.681932e-03 1.571722e-03 1.571685e-03 1.263867e-02 1.147535e-02 1.173629e-02 
    46.5                3.787728e-03 3.785172e-03 5.386624e-03 2.289495e-03 7.531264e-03 6.549023e-06 3.783992e-03 1.562215e-03 1.562255e-03 1.262359e-02 1.160581e-02 1.193687e-02 
    47.5                3.976500e-03 3.981396e-03 5.277997e-03 2.857245e-03 7.642513e-03 7.035475e-06 3.980950e-03 1.610314e-03 1.610119e-03 1.306270e-02 1.202140e-02 1.259976e-02 
    48.5                4.304706e-03 4.304786e-03 4.982211e-03 3.465116e-03 7.886041e-03 7.389956e-06 4.304073e-03 1.660267e-03 1.660092e-03 1.352622e-02 1.275099e-02 1.338715e-02 
    49.5                4.648651e-03 4.651591e-03 4.946702e-03 4.163875e-03 8.278067e-03 7.950401e-06 4.650937e-03 1.737123e-03 1.736968e-03 1.437852e-02 1.364255e-02 1.443005e-02 
    50.5                5.314069e-03 5.322332e-03 4.942816e-03 5.325346e-03 8.985308e-03 8.961064e-06 5.321774e-03 1.844818e-03 1.844590e-03 1.582561e-02 1.525897e-02 1.638552e-02 
    51.5                6.051197e-03 6.056820e-03 4.916989e-03 6.350724e-03 9.474011e-03 1.046928e-05 6.057535e-03 1.923400e-03 1.923290e-03 1.698253e-02 1.688201e-02 1.832030e-02 
    52.5                6.255304e-03 6.255782e-03 4.722590e-03 6.699435e-03 9.229352e-03 1.111058e-05 6.257648e-03 1.956520e-03 1.956076e-03 1.685834e-02 1.708360e-02 1.875636e-02 
    53.5                6.316618e-03 6.315668e-03 4.262321e-03 7.086007e-03 9.065902e-03 1.160209e-05 6.318398e-03 1.955067e-03 1.954905e-03 1.661460e-02 1.708940e-02 1.880726e-02 
    54.5                6.110863e-03 6.111692e-03 3.988062e-03 6.796295e-03 8.453484e-03 1.168447e-05 6.113167e-03 1.916199e-03 1.915750e-03 1.565144e-02 1.634125e-02 1.805684e-02 
    55.5                6.027636e-03 6.031620e-03 3.616848e-03 7.038829e-03 8.296228e-03 1.160054e-05 6.033433e-03 1.892259e-03 1.891702e-03 1.540052e-02 1.610114e-02 1.781784e-02 
    56.5                5.841952e-03 5.843149e-03 3.359055e-03 6.789059e-03 7.873616e-03 1.106575e-05 5.845031e-03 1.830864e-03 1.830539e-03 1.462678e-02 1.549210e-02 1.712896e-02 
    57.5                5.443103e-03 5.446475e-03 3.056586e-03 6.413582e-03 7.103427e-03 1.021295e-05 5.448731e-03 1.706605e-03 1.706226e-03 1.341610e-02 1.428808e-02 1.595984e-02 
    58.5                5.139560e-03 5.137389e-03 2.553925e-03 6.290644e-03 6.650370e-03 9.619181e-06 5.139262e-03 1.565375e-03 1.564940e-03 1.251920e-02 1.345351e-02 1.499542e-02 
    59.5                4.901901e-03 4.901589e-03 2.252185e-03 6.107078e-03 6.261672e-03 9.054230e-06 4.903561e-03 1.427071e-03 1.426759e-03 1.177018e-02 1.277887e-02 1.424133e-02 
    60.5                4.535954e-03 4.543434e-03 2.000845e-03 5.692902e-03 5.624916e-03 8.458448e-06 4.545492e-03 1.256430e-03 1.256063e-03 1.069082e-02 1.173461e-02 1.314648e-02 
    61.5                4.094184e-03 4.096334e-03 1.636709e-03 5.056270e-03 4.861520e-03 7.338515e-06 4.098010e-03 1.089003e-03 1.088725e-03 9.234061e-03 1.043373e-02 1.166643e-02 
    62.5                3.376379e-03 3.371171e-03 1.252502e-03 4.202521e-03 3.921346e-03 6.179946e-06 3.372959e-03 9.054627e-04 9.051100e-04 7.481104e-03 8.559305e-03 9.567863e-03 
    63.5                2.754727e-03 2.757633e-03 9.343929e-04 3.467913e-03 3.175695e-03 4.773133e-06 2.758751e-03 7.293196e-04 7.292053e-04 6.018456e-03 6.969246e-03 7.771772e-03 
    64.5                2.210411e-03 2.210464e-03 6.980420e-04 2.804289e-03 2.516461e-03 3.759166e-06 2.211194e-03 5.605720e-04 5.603441e-04 4.763644e-03 5.573798e-03 6.213399e-03 
    65.5                1.741536e-03 1.740602e-03 5.012592e-04 2.162938e-03 1.907023e-03 2.864477e-06 1.741257e-03 4.119504e-04 4.118502e-04 3.602387e-03 4.339183e-03 4.820693e-03 
    66.5                1.272247e-03 1.270637e-03 3.407339e-04 1.551257e-03 1.347826e-03 2.103611e-06 1.271289e-03 2.786759e-04 2.785623e-04 2.542994e-03 3.140484e-03 3.481341e-03 
    67.5                8.425802e-04 8.423093e-04 2.134499e-04 1.004912e-03 8.580514e-04 1.395007e-06 8.427611e-04 1.683934e-04 1.683528e-04 1.619575e-03 2.059625e-03 2.281589e-03 
    68.5                5.068922e-04 5.073540e-04 1.141736e-04 5.694171e-04 4.792162e-04 8.593796e-07 5.076115e-04 8.626969e-05 8.623666e-05 9.022880e-04 1.215567e-03 1.337852e-03 
    69.5                2.469561e-04 2.461764e-04 5.103297e-05 2.544508e-04 2.108592e-04 4.507524e-07 2.464046e-04 3.473038e-05 3.470530e-05 3.981296e-04 5.776817e-04 6.315646e-04 
    70.5                8.188491e-05 8.150220e-05 1.652831e-05 6.518402e-05 5.500345e-05 1.803423e-07 8.152446e-05 9.024319e-06 9.014151e-06 1.053119e-04 1.829912e-04 1.964504e-04 
    71.5                1.387345e-05 1.381241e-05 2.415518e-06 8.753685e-06 7.229757e-06 3.759151e-08 1.380614e-05 1.237764e-06 1.236471e-06 1.406017e-05 2.993597e-05 3.165402e-05 
    72.5                8.440329e-07 8.262089e-07 9.218227e-08 1.924413e-07 1.648530e-07 3.716151e-09 8.239609e-07 4.227592e-08 4.204540e-08 3.517426e-07 1.686643e-06 1.707249e-06 
    73.5                0.000000e+00 0.000000e+00 0.000000e+00 0.000000e+00 0.000000e+00 0.000000e+00 0.000000e+00 0.000000e+00 0.000000e+00 0.000000e+00 0.000000e+00 0.000000e+00 
    74.5                0.000000e+00 0.000000e+00 0.000000e+00 0.000000e+00 0.000000e+00 0.000000e+00 0.000000e+00 0.000000e+00 0.000000e+00 0.000000e+00 0.000000e+00 0.000000e+00 
    75.5                0.000000e+00 0.000000e+00 0.000000e+00 0.000000e+00 0.000000e+00 0.000000e+00 0.000000e+00 0.000000e+00 0.000000e+00 0.000000e+00 0.000000e+00 0.000000e+00 
    76.5                0.000000e+00 0.000000e+00 0.000000e+00 0.000000e+00 0.000000e+00 0.000000e+00 0.000000e+00 0.000000e+00 0.000000e+00 0.000000e+00 0.000000e+00 0.000000e+00 
    77.5                0.000000e+00 0.000000e+00 0.000000e+00 0.000000e+00 0.000000e+00 0.000000e+00 0.000000e+00 0.000000e+00 0.000000e+00 0.000000e+00 0.000000e+00 0.000000e+00 
    78.5                0.000000e+00 0.000000e+00 0.000000e+00 0.000000e+00 0.000000e+00 0.000000e+00 0.000000e+00 0.000000e+00 0.000000e+00 0.000000e+00 0.000000e+00 0.000000e+00 
    79.5                0.000000e+00 0.000000e+00 0.000000e+00 0.000000e+00 0.000000e+00 0.000000e+00 0.000000e+00 0.000000e+00 0.000000e+00 0.000000e+00 0.000000e+00 0.000000e+00 


