# 80 rows of flux data
# 12 columns of flux data
# 
# total cross-sectional flux  2.179396e+00 /m^2/yr
#
#                             +x ram      -x wake      +y port -y starboard    +z zenith     -z nadir        Earth          Sun     anti-Sun      rot (x)      rot (y)      rot (z) 
# average speed (km/s)         24.16        24.16        20.57        24.96        21.49        25.42        24.16        24.40        24.40        23.25        23.66        24.01 
# total flux (#/m2/yr)  6.805865e-01 6.804700e-01 3.286711e-01 9.322769e-01 5.184969e-01 1.728878e-03 6.754020e-01 9.536283e-01 9.534654e-01 1.445693e+00 1.559959e+00 2.061747e+00 
# velocity (km/s)
     0.5                0.000000e+00 0.000000e+00 0.000000e+00 0.000000e+00 0.000000e+00 0.000000e+00 0.000000e+00 0.000000e+00 0.000000e+00 0.000000e+00 0.000000e+00 0.000000e+00 
     1.5                0.000000e+00 0.000000e+00 0.000000e+00 0.000000e+00 0.000000e+00 0.000000e+00 0.000000e+00 0.000000e+00 0.000000e+00 0.000000e+00 0.000000e+00 0.000000e+00 
     2.5                1.063734e-06 1.099632e-06 0.000000e+00 4.997879e-06 3.329887e-06 0.000000e+00 1.102235e-06 8.092872e-07 7.979331e-07 6.076246e-06 4.175688e-06 5.653923e-06 
     3.5                7.686720e-05 7.731341e-05 6.316452e-06 1.535293e-04 1.030780e-04 4.531754e-08 7.709184e-05 5.644338e-05 5.643574e-05 2.012369e-04 2.022216e-04 2.473487e-04 
     4.5                4.052305e-04 4.056497e-04 1.113614e-04 6.917109e-04 4.975845e-04 6.089851e-07 4.040541e-04 3.109983e-04 3.109024e-04 1.022017e-03 1.044970e-03 1.267431e-03 
     5.5                1.234264e-03 1.235598e-03 4.896076e-04 1.778483e-03 1.541773e-03 1.930401e-06 1.231218e-03 1.032926e-03 1.032631e-03 3.004378e-03 3.189998e-03 3.724966e-03 
     6.5                2.580487e-03 2.581248e-03 1.587869e-03 3.280936e-03 3.195924e-03 4.078401e-06 2.571950e-03 2.273273e-03 2.272848e-03 6.385112e-03 6.625248e-03 7.878656e-03 
     7.5                4.537614e-03 4.537017e-03 2.924625e-03 5.831188e-03 5.762068e-03 7.557837e-06 4.520954e-03 4.191280e-03 4.190272e-03 1.150363e-02 1.175379e-02 1.400025e-02 
     8.5                7.127839e-03 7.129412e-03 4.901838e-03 8.563129e-03 8.777419e-03 1.200065e-05 7.103000e-03 6.775822e-03 6.775359e-03 1.757921e-02 1.825726e-02 2.177042e-02 
     9.5                9.678771e-03 9.679616e-03 7.376182e-03 1.064864e-02 1.186220e-02 1.664939e-05 9.636884e-03 9.830231e-03 9.827581e-03 2.370815e-02 2.475366e-02 2.937349e-02 
    10.5                1.202064e-02 1.201997e-02 1.003476e-02 1.307038e-02 1.504728e-02 2.075974e-05 1.196001e-02 1.327220e-02 1.327143e-02 3.032266e-02 3.094534e-02 3.701948e-02 
    11.5                1.415259e-02 1.414968e-02 1.193184e-02 1.520146e-02 1.776689e-02 2.421177e-05 1.407050e-02 1.663802e-02 1.663479e-02 3.566035e-02 3.649205e-02 4.353782e-02 
    12.5                1.564986e-02 1.564302e-02 1.342621e-02 1.690334e-02 1.943814e-02 2.830506e-05 1.554390e-02 1.958979e-02 1.958830e-02 3.957609e-02 4.031893e-02 4.841075e-02 
    13.5                1.731824e-02 1.731714e-02 1.410617e-02 1.969504e-02 2.109761e-02 3.219520e-05 1.719818e-02 2.274417e-02 2.274098e-02 4.367707e-02 4.439925e-02 5.374014e-02 
    14.5                1.920819e-02 1.920555e-02 1.503362e-02 2.231253e-02 2.217751e-02 3.696045e-05 1.906530e-02 2.597137e-02 2.596737e-02 4.742953e-02 4.847158e-02 5.950281e-02 
    15.5                2.096448e-02 2.096012e-02 1.566011e-02 2.491604e-02 2.266393e-02 4.287529e-05 2.080161e-02 2.909126e-02 2.908862e-02 5.056683e-02 5.194610e-02 6.480260e-02 
    16.5                2.261458e-02 2.261322e-02 1.624605e-02 2.745492e-02 2.306646e-02 4.830633e-05 2.243648e-02 3.194353e-02 3.193762e-02 5.356389e-02 5.516704e-02 6.983795e-02 
    17.5                2.400385e-02 2.399934e-02 1.639703e-02 2.991937e-02 2.308942e-02 5.366682e-05 2.380655e-02 3.457301e-02 3.456919e-02 5.579734e-02 5.768269e-02 7.407778e-02 
    18.5                2.520342e-02 2.519788e-02 1.629407e-02 3.186415e-02 2.278415e-02 5.845557e-05 2.499210e-02 3.677464e-02 3.676847e-02 5.716742e-02 5.964227e-02 7.741880e-02 
    19.5                2.610206e-02 2.609817e-02 1.630842e-02 3.350393e-02 2.250350e-02 6.233735e-05 2.588181e-02 3.846935e-02 3.846424e-02 5.844238e-02 6.110588e-02 8.013414e-02 
    20.5                2.684293e-02 2.684169e-02 1.598379e-02 3.530971e-02 2.199627e-02 6.584793e-05 2.661634e-02 3.983656e-02 3.982967e-02 5.937315e-02 6.216402e-02 8.246625e-02 
    21.5                2.774368e-02 2.774013e-02 1.537469e-02 3.744727e-02 2.163822e-02 6.955929e-05 2.750555e-02 4.142332e-02 4.141681e-02 6.044715e-02 6.359387e-02 8.508532e-02 
    22.5                2.857354e-02 2.857127e-02 1.503112e-02 3.898877e-02 2.140539e-02 7.362860e-05 2.833042e-02 4.270963e-02 4.270234e-02 6.133805e-02 6.500798e-02 8.734420e-02 
    23.5                2.903044e-02 2.902650e-02 1.467224e-02 4.005648e-02 2.070035e-02 7.625747e-05 2.878211e-02 4.338076e-02 4.337346e-02 6.149379e-02 6.542851e-02 8.861023e-02 
    24.5                2.924282e-02 2.923831e-02 1.399979e-02 4.103240e-02 1.996746e-02 7.875740e-05 2.899358e-02 4.367899e-02 4.367162e-02 6.129420e-02 6.542775e-02 8.919164e-02 
    25.5                2.929683e-02 2.929231e-02 1.317391e-02 4.171201e-02 1.908813e-02 8.001770e-05 2.904983e-02 4.363438e-02 4.362581e-02 6.059975e-02 6.505762e-02 8.916778e-02 
    26.5                2.881890e-02 2.881437e-02 1.218941e-02 4.137344e-02 1.797761e-02 8.078086e-05 2.857917e-02 4.270927e-02 4.270191e-02 5.874190e-02 6.361507e-02 8.739225e-02 
    27.5                2.806186e-02 2.805705e-02 1.099218e-02 4.103610e-02 1.693479e-02 7.958885e-05 2.782953e-02 4.145103e-02 4.144337e-02 5.670502e-02 6.165828e-02 8.499458e-02 
    28.5                2.724045e-02 2.723562e-02 9.839921e-03 4.022442e-02 1.588012e-02 7.822455e-05 2.701874e-02 3.995534e-02 3.994812e-02 5.428780e-02 5.960094e-02 8.217178e-02 
    29.5                2.608861e-02 2.608369e-02 8.733330e-03 3.895115e-02 1.472604e-02 7.578311e-05 2.587898e-02 3.803239e-02 3.802455e-02 5.144598e-02 5.684584e-02 7.851062e-02 
    30.5                2.479818e-02 2.479457e-02 7.672984e-03 3.740490e-02 1.354209e-02 7.236179e-05 2.460388e-02 3.589545e-02 3.588887e-02 4.838217e-02 5.382797e-02 7.444421e-02 
    31.5                2.329255e-02 2.328774e-02 6.524093e-03 3.541991e-02 1.228834e-02 6.846896e-05 2.311255e-02 3.338339e-02 3.337709e-02 4.480436e-02 5.036829e-02 6.962855e-02 
    32.5                2.147936e-02 2.147478e-02 5.361973e-03 3.288216e-02 1.100343e-02 6.345146e-05 2.131805e-02 3.042935e-02 3.042401e-02 4.069836e-02 4.630991e-02 6.390020e-02 
    33.5                1.939987e-02 1.939580e-02 4.331030e-03 2.982731e-02 9.699416e-03 5.734192e-05 1.925784e-02 2.716475e-02 2.715888e-02 3.624539e-02 4.172761e-02 5.743807e-02 
    34.5                1.729777e-02 1.729350e-02 3.451373e-03 2.669970e-02 8.457713e-03 5.085376e-05 1.717395e-02 2.394444e-02 2.394012e-02 3.190017e-02 3.712345e-02 5.099145e-02 
    35.5                1.516648e-02 1.516222e-02 2.651655e-03 2.351591e-02 7.253558e-03 4.443945e-05 1.506031e-02 2.073720e-02 2.073265e-02 2.760165e-02 3.248357e-02 4.452910e-02 
    36.5                1.309352e-02 1.308983e-02 1.951966e-03 2.035395e-02 6.125630e-03 3.796489e-05 1.300522e-02 1.765523e-02 1.765140e-02 2.346235e-02 2.798466e-02 3.824857e-02 
    37.5                1.105239e-02 1.104861e-02 1.394290e-03 1.721438e-02 5.075489e-03 3.192853e-05 1.097958e-02 1.470116e-02 1.469861e-02 1.952770e-02 2.358359e-02 3.214448e-02 
    38.5                9.087380e-03 9.084258e-03 9.681311e-04 1.406742e-02 4.079127e-03 2.624189e-05 9.030173e-03 1.188509e-02 1.188296e-02 1.574515e-02 1.935112e-02 2.625124e-02 
    39.5                7.162265e-03 7.159212e-03 6.411757e-04 1.098590e-02 3.138998e-03 2.087315e-05 7.118780e-03 9.198248e-03 9.196185e-03 1.215252e-02 1.522006e-02 2.054240e-02 
    40.5                5.378272e-03 5.375406e-03 4.012101e-04 8.149922e-03 2.301417e-03 1.583684e-05 5.346785e-03 6.779227e-03 6.777855e-03 8.923257e-03 1.140616e-02 1.530872e-02 
    41.5                3.840708e-03 3.838689e-03 2.361375e-04 5.766300e-03 1.611755e-03 1.142346e-05 3.819223e-03 4.758568e-03 4.757241e-03 6.254442e-03 8.132760e-03 1.086749e-02 
    42.5                2.614431e-03 2.612669e-03 1.319930e-04 3.858150e-03 1.069818e-03 7.928655e-06 2.600320e-03 3.173087e-03 3.172536e-03 4.152848e-03 5.524709e-03 7.335182e-03 
    43.5                1.631771e-03 1.630600e-03 7.120649e-05 2.316145e-03 6.389165e-04 5.154041e-06 1.623568e-03 1.926604e-03 1.926194e-03 2.482532e-03 3.436639e-03 4.508693e-03 
    44.5                8.944779e-04 8.935941e-04 3.461946e-05 1.207671e-03 3.316976e-04 2.985573e-06 8.901475e-04 1.023672e-03 1.023466e-03 1.290833e-03 1.876231e-03 2.425951e-03 
    45.5                4.058912e-04 4.056399e-04 1.438223e-05 5.022144e-04 1.376639e-04 1.483020e-06 4.043132e-04 4.456446e-04 4.454093e-04 5.365951e-04 8.464966e-04 1.068454e-03 
    46.5                1.351857e-04 1.350135e-04 4.963536e-06 1.477008e-04 4.050715e-05 5.692461e-07 1.346389e-04 1.413790e-04 1.414099e-04 1.585605e-04 2.799782e-04 3.431754e-04 
    47.5                3.155129e-05 3.154520e-05 1.205791e-06 2.900554e-05 7.961239e-06 1.540442e-07 3.146748e-05 3.117401e-05 3.116094e-05 3.138021e-05 6.483279e-05 7.649797e-05 
    48.5                4.211047e-06 4.213616e-06 1.909977e-07 2.647309e-06 7.331692e-07 2.574263e-08 4.204187e-06 3.792345e-06 3.794323e-06 2.951194e-06 8.535107e-06 9.400047e-06 
    49.5                1.155885e-07 1.137844e-07 8.671560e-09 2.348903e-08 6.908953e-09 1.147065e-09 1.134095e-07 9.232100e-08 9.398396e-08 3.359098e-08 2.296339e-07 2.328774e-07 
    50.5                0.000000e+00 0.000000e+00 0.000000e+00 0.000000e+00 0.000000e+00 0.000000e+00 0.000000e+00 0.000000e+00 0.000000e+00 0.000000e+00 0.000000e+00 0.000000e+00 
    51.5                0.000000e+00 0.000000e+00 0.000000e+00 0.000000e+00 0.000000e+00 0.000000e+00 0.000000e+00 0.000000e+00 0.000000e+00 0.000000e+00 0.000000e+00 0.000000e+00 
    52.5                0.000000e+00 0.000000e+00 0.000000e+00 0.000000e+00 0.000000e+00 0.000000e+00 0.000000e+00 0.000000e+00 0.000000e+00 0.000000e+00 0.000000e+00 0.000000e+00 
    53.5                0.000000e+00 0.000000e+00 0.000000e+00 0.000000e+00 0.000000e+00 0.000000e+00 0.000000e+00 0.000000e+00 0.000000e+00 0.000000e+00 0.000000e+00 0.000000e+00 
    54.5                0.000000e+00 0.000000e+00 0.000000e+00 0.000000e+00 0.000000e+00 0.000000e+00 0.000000e+00 0.000000e+00 0.000000e+00 0.000000e+00 0.000000e+00 0.000000e+00 
    55.5                0.000000e+00 0.000000e+00 0.000000e+00 0.000000e+00 0.000000e+00 0.000000e+00 0.000000e+00 0.000000e+00 0.000000e+00 0.000000e+00 0.000000e+00 0.000000e+00 
    56.5                0.000000e+00 0.000000e+00 0.000000e+00 0.000000e+00 0.000000e+00 0.000000e+00 0.000000e+00 0.000000e+00 0.000000e+00 0.000000e+00 0.000000e+00 0.000000e+00 
    57.5                0.000000e+00 0.000000e+00 0.000000e+00 0.000000e+00 0.000000e+00 0.000000e+00 0.000000e+00 0.000000e+00 0.000000e+00 0.000000e+00 0.000000e+00 0.000000e+00 
    58.5                0.000000e+00 0.000000e+00 0.000000e+00 0.000000e+00 0.000000e+00 0.000000e+00 0.000000e+00 0.000000e+00 0.000000e+00 0.000000e+00 0.000000e+00 0.000000e+00 
    59.5                0.000000e+00 0.000000e+00 0.000000e+00 0.000000e+00 0.000000e+00 0.000000e+00 0.000000e+00 0.000000e+00 0.000000e+00 0.000000e+00 0.000000e+00 0.000000e+00 
    60.5                0.000000e+00 0.000000e+00 0.000000e+00 0.000000e+00 0.000000e+00 0.000000e+00 0.000000e+00 0.000000e+00 0.000000e+00 0.000000e+00 0.000000e+00 0.000000e+00 
    61.5                0.000000e+00 0.000000e+00 0.000000e+00 0.000000e+00 0.000000e+00 0.000000e+00 0.000000e+00 0.000000e+00 0.000000e+00 0.000000e+00 0.000000e+00 0.000000e+00 
    62.5                0.000000e+00 0.000000e+00 0.000000e+00 0.000000e+00 0.000000e+00 0.000000e+00 0.000000e+00 0.000000e+00 0.000000e+00 0.000000e+00 0.000000e+00 0.000000e+00 
    63.5                0.000000e+00 0.000000e+00 0.000000e+00 0.000000e+00 0.000000e+00 0.000000e+00 0.000000e+00 0.000000e+00 0.000000e+00 0.000000e+00 0.000000e+00 0.000000e+00 
    64.5                0.000000e+00 0.000000e+00 0.000000e+00 0.000000e+00 0.000000e+00 0.000000e+00 0.000000e+00 0.000000e+00 0.000000e+00 0.000000e+00 0.000000e+00 0.000000e+00 
    65.5                0.000000e+00 0.000000e+00 0.000000e+00 0.000000e+00 0.000000e+00 0.000000e+00 0.000000e+00 0.000000e+00 0.000000e+00 0.000000e+00 0.000000e+00 0.000000e+00 
    66.5                0.000000e+00 0.000000e+00 0.000000e+00 0.000000e+00 0.000000e+00 0.000000e+00 0.000000e+00 0.000000e+00 0.000000e+00 0.000000e+00 0.000000e+00 0.000000e+00 
    67.5                0.000000e+00 0.000000e+00 0.000000e+00 0.000000e+00 0.000000e+00 0.000000e+00 0.000000e+00 0.000000e+00 0.000000e+00 0.000000e+00 0.000000e+00 0.000000e+00 
    68.5                0.000000e+00 0.000000e+00 0.000000e+00 0.000000e+00 0.000000e+00 0.000000e+00 0.000000e+00 0.000000e+00 0.000000e+00 0.000000e+00 0.000000e+00 0.000000e+00 
    69.5                0.000000e+00 0.000000e+00 0.000000e+00 0.000000e+00 0.000000e+00 0.000000e+00 0.000000e+00 0.000000e+00 0.000000e+00 0.000000e+00 0.000000e+00 0.000000e+00 
    70.5                0.000000e+00 0.000000e+00 0.000000e+00 0.000000e+00 0.000000e+00 0.000000e+00 0.000000e+00 0.000000e+00 0.000000e+00 0.000000e+00 0.000000e+00 0.000000e+00 
    71.5                0.000000e+00 0.000000e+00 0.000000e+00 0.000000e+00 0.000000e+00 0.000000e+00 0.000000e+00 0.000000e+00 0.000000e+00 0.000000e+00 0.000000e+00 0.000000e+00 
    72.5                0.000000e+00 0.000000e+00 0.000000e+00 0.000000e+00 0.000000e+00 0.000000e+00 0.000000e+00 0.000000e+00 0.000000e+00 0.000000e+00 0.000000e+00 0.000000e+00 
    73.5                0.000000e+00 0.000000e+00 0.000000e+00 0.000000e+00 0.000000e+00 0.000000e+00 0.000000e+00 0.000000e+00 0.000000e+00 0.000000e+00 0.000000e+00 0.000000e+00 
    74.5                0.000000e+00 0.000000e+00 0.000000e+00 0.000000e+00 0.000000e+00 0.000000e+00 0.000000e+00 0.000000e+00 0.000000e+00 0.000000e+00 0.000000e+00 0.000000e+00 
    75.5                0.000000e+00 0.000000e+00 0.000000e+00 0.000000e+00 0.000000e+00 0.000000e+00 0.000000e+00 0.000000e+00 0.000000e+00 0.000000e+00 0.000000e+00 0.000000e+00 
    76.5                0.000000e+00 0.000000e+00 0.000000e+00 0.000000e+00 0.000000e+00 0.000000e+00 0.000000e+00 0.000000e+00 0.000000e+00 0.000000e+00 0.000000e+00 0.000000e+00 
    77.5                0.000000e+00 0.000000e+00 0.000000e+00 0.000000e+00 0.000000e+00 0.000000e+00 0.000000e+00 0.000000e+00 0.000000e+00 0.000000e+00 0.000000e+00 0.000000e+00 
    78.5                0.000000e+00 0.000000e+00 0.000000e+00 0.000000e+00 0.000000e+00 0.000000e+00 0.000000e+00 0.000000e+00 0.000000e+00 0.000000e+00 0.000000e+00 0.000000e+00 
    79.5                0.000000e+00 0.000000e+00 0.000000e+00 0.000000e+00 0.000000e+00 0.000000e+00 0.000000e+00 0.000000e+00 0.000000e+00 0.000000e+00 0.000000e+00 0.000000e+00 


