# 80 rows of flux data
# 12 columns of flux data
# 
# total cross-sectional flux  2.069110e+00 /m^2/yr
#
#                             +x ram      -x wake      +y port -y starboard    +z zenith     -z nadir        Earth          Sun     anti-Sun      rot (x)      rot (y)      rot (z) 
# average speed (km/s)         24.00        24.00        24.49        17.92        23.10        23.69        24.00        24.29        24.29        23.16        23.73        23.84 
# total flux (#/m2/yr)  6.477349e-01 6.474186e-01 8.905098e-01 1.434524e-01 7.700085e-01 8.870902e-04 6.418174e-01 9.045436e-01 9.042669e-01 1.368348e+00 1.655959e+00 1.837145e+00 
# velocity (km/s)
     0.5                0.000000e+00 0.000000e+00 0.000000e+00 0.000000e+00 0.000000e+00 0.000000e+00 0.000000e+00 0.000000e+00 0.000000e+00 0.000000e+00 0.000000e+00 0.000000e+00 
     1.5                0.000000e+00 0.000000e+00 0.000000e+00 0.000000e+00 0.000000e+00 0.000000e+00 0.000000e+00 0.000000e+00 0.000000e+00 0.000000e+00 0.000000e+00 0.000000e+00 
     2.5                9.813820e-07 1.021552e-06 3.909522e-06 0.000000e+00 4.404324e-06 0.000000e+00 1.013271e-06 7.598950e-07 7.496997e-07 5.957930e-06 5.010501e-06 4.600208e-06 
     3.5                7.719988e-05 7.816378e-05 1.344359e-04 5.390849e-06 1.432857e-04 2.469426e-08 7.782880e-05 5.753048e-05 5.754080e-05 2.122220e-04 2.326433e-04 2.329639e-04 
     4.5                4.107160e-04 4.120748e-04 6.729847e-04 6.284623e-05 6.862099e-04 3.831879e-07 4.099735e-04 3.243683e-04 3.240114e-04 1.097113e-03 1.189415e-03 1.229450e-03 
     5.5                1.273437e-03 1.276521e-03 1.790742e-03 3.277869e-04 1.993662e-03 1.416552e-06 1.270765e-03 1.100997e-03 1.100111e-03 3.220464e-03 3.588280e-03 3.679492e-03 
     6.5                2.575952e-03 2.577716e-03 3.319838e-03 1.007746e-03 3.880241e-03 3.370045e-06 2.565949e-03 2.319245e-03 2.318263e-03 6.462777e-03 7.141214e-03 7.456426e-03 
     7.5                4.567960e-03 4.570963e-03 5.926818e-03 1.942331e-03 6.948570e-03 6.148568e-06 4.550179e-03 4.242356e-03 4.240138e-03 1.167609e-02 1.271194e-02 1.335948e-02 
     8.5                7.184867e-03 7.185059e-03 8.986100e-03 3.256023e-03 1.041486e-02 1.013951e-05 7.151860e-03 6.873395e-03 6.871746e-03 1.789226e-02 1.961120e-02 2.092074e-02 
     9.5                9.499970e-03 9.499793e-03 1.102383e-02 4.644638e-03 1.359777e-02 1.429035e-05 9.448044e-03 9.779425e-03 9.776462e-03 2.320929e-02 2.583827e-02 2.727017e-02 
    10.5                1.168780e-02 1.168801e-02 1.331775e-02 6.373093e-03 1.688282e-02 1.738588e-05 1.161518e-02 1.303656e-02 1.303388e-02 2.898495e-02 3.187145e-02 3.380035e-02 
    11.5                1.378025e-02 1.377357e-02 1.545216e-02 8.082372e-03 1.974662e-02 2.010848e-05 1.368266e-02 1.619977e-02 1.619593e-02 3.423367e-02 3.742025e-02 4.010228e-02 
    12.5                1.515678e-02 1.514807e-02 1.721560e-02 9.027967e-03 2.163872e-02 2.242998e-05 1.503655e-02 1.892091e-02 1.891628e-02 3.778466e-02 4.115329e-02 4.440826e-02 
    13.5                1.692285e-02 1.691846e-02 2.015217e-02 9.442731e-03 2.413535e-02 2.426934e-05 1.678564e-02 2.210133e-02 2.209467e-02 4.218748e-02 4.592575e-02 4.981096e-02 
    14.5                1.875009e-02 1.874457e-02 2.296983e-02 9.642864e-03 2.602546e-02 2.717393e-05 1.858914e-02 2.522224e-02 2.521628e-02 4.585205e-02 5.041142e-02 5.508936e-02 
    15.5                2.041247e-02 2.040182e-02 2.554421e-02 9.266814e-03 2.744756e-02 2.971677e-05 2.022654e-02 2.814125e-02 2.813396e-02 4.852567e-02 5.432311e-02 5.946939e-02 
    16.5                2.188870e-02 2.188138e-02 2.795731e-02 8.947254e-03 2.876421e-02 3.172123e-05 2.168672e-02 3.067212e-02 3.066315e-02 5.096455e-02 5.778779e-02 6.344658e-02 
    17.5                2.321634e-02 2.320773e-02 3.046538e-02 8.508118e-03 2.978843e-02 3.352045e-05 2.299493e-02 3.324758e-02 3.323868e-02 5.319108e-02 6.079956e-02 6.720198e-02 
    18.5                2.434400e-02 2.433017e-02 3.238775e-02 7.790870e-03 3.035879e-02 3.502616e-05 2.410448e-02 3.523790e-02 3.522760e-02 5.439557e-02 6.316210e-02 6.995865e-02 
    19.5                2.507121e-02 2.506266e-02 3.384562e-02 7.213050e-03 3.078894e-02 3.606763e-05 2.482663e-02 3.663997e-02 3.662892e-02 5.522187e-02 6.473963e-02 7.181588e-02 
    20.5                2.574689e-02 2.573874e-02 3.533560e-02 6.619382e-03 3.107810e-02 3.642404e-05 2.549256e-02 3.784499e-02 3.783385e-02 5.589359e-02 6.612116e-02 7.359458e-02 
    21.5                2.661614e-02 2.660711e-02 3.722842e-02 5.879996e-03 3.171580e-02 3.711858e-05 2.635025e-02 3.940769e-02 3.939549e-02 5.706188e-02 6.805811e-02 7.589452e-02 
    22.5                2.740276e-02 2.739175e-02 3.855861e-02 5.494126e-03 3.216274e-02 3.790918e-05 2.712793e-02 4.062926e-02 4.061687e-02 5.793834e-02 6.975172e-02 7.790647e-02 
    23.5                2.770286e-02 2.769084e-02 3.930998e-02 4.889300e-03 3.200267e-02 3.807021e-05 2.742435e-02 4.104532e-02 4.103354e-02 5.773322e-02 7.016646e-02 7.851048e-02 
    24.5                2.782951e-02 2.781796e-02 3.985089e-02 4.302323e-03 3.179803e-02 3.778822e-05 2.755085e-02 4.119666e-02 4.118318e-02 5.732553e-02 7.025839e-02 7.869027e-02 
    25.5                2.778165e-02 2.776894e-02 4.002729e-02 3.751032e-03 3.133295e-02 3.719375e-05 2.750464e-02 4.102211e-02 4.100897e-02 5.646241e-02 6.985811e-02 7.834620e-02 
    26.5                2.718280e-02 2.716882e-02 3.926183e-02 3.195714e-03 3.029711e-02 3.636731e-05 2.691312e-02 3.998032e-02 3.996790e-02 5.450999e-02 6.813632e-02 7.641175e-02 
    27.5                2.643608e-02 2.642372e-02 3.850572e-02 2.733534e-03 2.931979e-02 3.472737e-05 2.617565e-02 3.880361e-02 3.879240e-02 5.267019e-02 6.616313e-02 7.427658e-02 
    28.5                2.560926e-02 2.559571e-02 3.739269e-02 2.304520e-03 2.816442e-02 3.345296e-05 2.535886e-02 3.739750e-02 3.738485e-02 5.049972e-02 6.394603e-02 7.178857e-02 
    29.5                2.446774e-02 2.445470e-02 3.581329e-02 1.940601e-03 2.671850e-02 3.168970e-05 2.423083e-02 3.555295e-02 3.554089e-02 4.782623e-02 6.097129e-02 6.847362e-02 
    30.5                2.318242e-02 2.316959e-02 3.401244e-02 1.592327e-03 2.513922e-02 2.981685e-05 2.296093e-02 3.348609e-02 3.347665e-02 4.491455e-02 5.765842e-02 6.477350e-02 
    31.5                2.168899e-02 2.167524e-02 3.184043e-02 1.274843e-03 2.334521e-02 2.776656e-05 2.148330e-02 3.109450e-02 3.108383e-02 4.160980e-02 5.383387e-02 6.047670e-02 
    32.5                1.997705e-02 1.996459e-02 2.928688e-02 1.006468e-03 2.132816e-02 2.557475e-05 1.979203e-02 2.837601e-02 2.836726e-02 3.794061e-02 4.947724e-02 5.557263e-02 
    33.5                1.801744e-02 1.800488e-02 2.636141e-02 7.919282e-04 1.910558e-02 2.313069e-05 1.785239e-02 2.536116e-02 2.535249e-02 3.392253e-02 4.454317e-02 5.001423e-02 
    34.5                1.604086e-02 1.602869e-02 2.342577e-02 6.250952e-04 1.690234e-02 2.056232e-05 1.589609e-02 2.237566e-02 2.236840e-02 2.996343e-02 3.958757e-02 4.444805e-02 
    35.5                1.404087e-02 1.402953e-02 2.048475e-02 4.726699e-04 1.471444e-02 1.804076e-05 1.391591e-02 1.939579e-02 1.938861e-02 2.603653e-02 3.460444e-02 3.885369e-02 
    36.5                1.212239e-02 1.211237e-02 1.762225e-02 3.436461e-04 1.260451e-02 1.559821e-05 1.201731e-02 1.655164e-02 1.654645e-02 2.226247e-02 2.981087e-02 3.345928e-02 
    37.5                1.023545e-02 1.022569e-02 1.483046e-02 2.461377e-04 1.057145e-02 1.324139e-05 1.014752e-02 1.381621e-02 1.381166e-02 1.864123e-02 2.512685e-02 2.819402e-02 
    38.5                8.413519e-03 8.404395e-03 1.207392e-02 1.718801e-04 8.581099e-03 1.101150e-05 8.342674e-03 1.118805e-02 1.118424e-02 1.511094e-02 2.058619e-02 2.307697e-02 
    39.5                6.625777e-03 6.618282e-03 9.398582e-03 1.135336e-04 6.662395e-03 8.828089e-06 6.571805e-03 8.666116e-03 8.663074e-03 1.171688e-02 1.615419e-02 1.808680e-02 
    40.5                4.972768e-03 4.965795e-03 6.955595e-03 7.166718e-05 4.920372e-03 6.763179e-06 4.932628e-03 6.392257e-03 6.390234e-03 8.642948e-03 1.207521e-02 1.350026e-02 
    41.5                3.550924e-03 3.545668e-03 4.911694e-03 4.283622e-05 3.468259e-03 4.912153e-06 3.522954e-03 4.491314e-03 4.489430e-03 6.085187e-03 8.595600e-03 9.599135e-03 
    42.5                2.418328e-03 2.413897e-03 3.282131e-03 2.407609e-05 2.314182e-03 3.426391e-06 2.399357e-03 2.996982e-03 2.996121e-03 4.056353e-03 5.824067e-03 6.490906e-03 
    43.5                1.505562e-03 1.502494e-03 1.968415e-03 1.307066e-05 1.386518e-03 2.236468e-06 1.494176e-03 1.815773e-03 1.815021e-03 2.428967e-03 3.593400e-03 3.989247e-03 
    44.5                8.218737e-04 8.196872e-04 1.025647e-03 6.201442e-06 7.217901e-04 1.291154e-06 8.156023e-04 9.610231e-04 9.606374e-04 1.263948e-03 1.940171e-03 2.143617e-03 
    45.5                3.703749e-04 3.692681e-04 4.263900e-04 2.547904e-06 2.998813e-04 6.372263e-07 3.677046e-04 4.155064e-04 4.151158e-04 5.251995e-04 8.591984e-04 9.415961e-04 
    46.5                1.215169e-04 1.209882e-04 1.253921e-04 8.518013e-07 8.816710e-05 2.423143e-07 1.205604e-04 1.299050e-04 1.298985e-04 1.545421e-04 2.762266e-04 2.997264e-04 
    47.5                2.784928e-05 2.776991e-05 2.462063e-05 2.007561e-07 1.730603e-05 6.541962e-08 2.768729e-05 2.812293e-05 2.809237e-05 3.038157e-05 6.171716e-05 6.607088e-05 
    48.5                3.577289e-06 3.572678e-06 2.248638e-06 2.897504e-08 1.580766e-06 1.024356e-08 3.564392e-06 3.271730e-06 3.280670e-06 2.789230e-06 7.566436e-06 7.892477e-06 
    49.5                8.376151e-08 8.482553e-08 1.995279e-08 1.081624e-09 1.416009e-08 3.917865e-10 8.461321e-08 6.816231e-08 6.909880e-08 2.590752e-08 1.696711e-07 1.707508e-07 
    50.5                0.000000e+00 0.000000e+00 0.000000e+00 0.000000e+00 0.000000e+00 0.000000e+00 0.000000e+00 0.000000e+00 0.000000e+00 0.000000e+00 0.000000e+00 0.000000e+00 
    51.5                0.000000e+00 0.000000e+00 0.000000e+00 0.000000e+00 0.000000e+00 0.000000e+00 0.000000e+00 0.000000e+00 0.000000e+00 0.000000e+00 0.000000e+00 0.000000e+00 
    52.5                0.000000e+00 0.000000e+00 0.000000e+00 0.000000e+00 0.000000e+00 0.000000e+00 0.000000e+00 0.000000e+00 0.000000e+00 0.000000e+00 0.000000e+00 0.000000e+00 
    53.5                0.000000e+00 0.000000e+00 0.000000e+00 0.000000e+00 0.000000e+00 0.000000e+00 0.000000e+00 0.000000e+00 0.000000e+00 0.000000e+00 0.000000e+00 0.000000e+00 
    54.5                0.000000e+00 0.000000e+00 0.000000e+00 0.000000e+00 0.000000e+00 0.000000e+00 0.000000e+00 0.000000e+00 0.000000e+00 0.000000e+00 0.000000e+00 0.000000e+00 
    55.5                0.000000e+00 0.000000e+00 0.000000e+00 0.000000e+00 0.000000e+00 0.000000e+00 0.000000e+00 0.000000e+00 0.000000e+00 0.000000e+00 0.000000e+00 0.000000e+00 
    56.5                0.000000e+00 0.000000e+00 0.000000e+00 0.000000e+00 0.000000e+00 0.000000e+00 0.000000e+00 0.000000e+00 0.000000e+00 0.000000e+00 0.000000e+00 0.000000e+00 
    57.5                0.000000e+00 0.000000e+00 0.000000e+00 0.000000e+00 0.000000e+00 0.000000e+00 0.000000e+00 0.000000e+00 0.000000e+00 0.000000e+00 0.000000e+00 0.000000e+00 
    58.5                0.000000e+00 0.000000e+00 0.000000e+00 0.000000e+00 0.000000e+00 0.000000e+00 0.000000e+00 0.000000e+00 0.000000e+00 0.000000e+00 0.000000e+00 0.000000e+00 
    59.5                0.000000e+00 0.000000e+00 0.000000e+00 0.000000e+00 0.000000e+00 0.000000e+00 0.000000e+00 0.000000e+00 0.000000e+00 0.000000e+00 0.000000e+00 0.000000e+00 
    60.5                0.000000e+00 0.000000e+00 0.000000e+00 0.000000e+00 0.000000e+00 0.000000e+00 0.000000e+00 0.000000e+00 0.000000e+00 0.000000e+00 0.000000e+00 0.000000e+00 
    61.5                0.000000e+00 0.000000e+00 0.000000e+00 0.000000e+00 0.000000e+00 0.000000e+00 0.000000e+00 0.000000e+00 0.000000e+00 0.000000e+00 0.000000e+00 0.000000e+00 
    62.5                0.000000e+00 0.000000e+00 0.000000e+00 0.000000e+00 0.000000e+00 0.000000e+00 0.000000e+00 0.000000e+00 0.000000e+00 0.000000e+00 0.000000e+00 0.000000e+00 
    63.5                0.000000e+00 0.000000e+00 0.000000e+00 0.000000e+00 0.000000e+00 0.000000e+00 0.000000e+00 0.000000e+00 0.000000e+00 0.000000e+00 0.000000e+00 0.000000e+00 
    64.5                0.000000e+00 0.000000e+00 0.000000e+00 0.000000e+00 0.000000e+00 0.000000e+00 0.000000e+00 0.000000e+00 0.000000e+00 0.000000e+00 0.000000e+00 0.000000e+00 
    65.5                0.000000e+00 0.000000e+00 0.000000e+00 0.000000e+00 0.000000e+00 0.000000e+00 0.000000e+00 0.000000e+00 0.000000e+00 0.000000e+00 0.000000e+00 0.000000e+00 
    66.5                0.000000e+00 0.000000e+00 0.000000e+00 0.000000e+00 0.000000e+00 0.000000e+00 0.000000e+00 0.000000e+00 0.000000e+00 0.000000e+00 0.000000e+00 0.000000e+00 
    67.5                0.000000e+00 0.000000e+00 0.000000e+00 0.000000e+00 0.000000e+00 0.000000e+00 0.000000e+00 0.000000e+00 0.000000e+00 0.000000e+00 0.000000e+00 0.000000e+00 
    68.5                0.000000e+00 0.000000e+00 0.000000e+00 0.000000e+00 0.000000e+00 0.000000e+00 0.000000e+00 0.000000e+00 0.000000e+00 0.000000e+00 0.000000e+00 0.000000e+00 
    69.5                0.000000e+00 0.000000e+00 0.000000e+00 0.000000e+00 0.000000e+00 0.000000e+00 0.000000e+00 0.000000e+00 0.000000e+00 0.000000e+00 0.000000e+00 0.000000e+00 
    70.5                0.000000e+00 0.000000e+00 0.000000e+00 0.000000e+00 0.000000e+00 0.000000e+00 0.000000e+00 0.000000e+00 0.000000e+00 0.000000e+00 0.000000e+00 0.000000e+00 
    71.5                0.000000e+00 0.000000e+00 0.000000e+00 0.000000e+00 0.000000e+00 0.000000e+00 0.000000e+00 0.000000e+00 0.000000e+00 0.000000e+00 0.000000e+00 0.000000e+00 
    72.5                0.000000e+00 0.000000e+00 0.000000e+00 0.000000e+00 0.000000e+00 0.000000e+00 0.000000e+00 0.000000e+00 0.000000e+00 0.000000e+00 0.000000e+00 0.000000e+00 
    73.5                0.000000e+00 0.000000e+00 0.000000e+00 0.000000e+00 0.000000e+00 0.000000e+00 0.000000e+00 0.000000e+00 0.000000e+00 0.000000e+00 0.000000e+00 0.000000e+00 
    74.5                0.000000e+00 0.000000e+00 0.000000e+00 0.000000e+00 0.000000e+00 0.000000e+00 0.000000e+00 0.000000e+00 0.000000e+00 0.000000e+00 0.000000e+00 0.000000e+00 
    75.5                0.000000e+00 0.000000e+00 0.000000e+00 0.000000e+00 0.000000e+00 0.000000e+00 0.000000e+00 0.000000e+00 0.000000e+00 0.000000e+00 0.000000e+00 0.000000e+00 
    76.5                0.000000e+00 0.000000e+00 0.000000e+00 0.000000e+00 0.000000e+00 0.000000e+00 0.000000e+00 0.000000e+00 0.000000e+00 0.000000e+00 0.000000e+00 0.000000e+00 
    77.5                0.000000e+00 0.000000e+00 0.000000e+00 0.000000e+00 0.000000e+00 0.000000e+00 0.000000e+00 0.000000e+00 0.000000e+00 0.000000e+00 0.000000e+00 0.000000e+00 
    78.5                0.000000e+00 0.000000e+00 0.000000e+00 0.000000e+00 0.000000e+00 0.000000e+00 0.000000e+00 0.000000e+00 0.000000e+00 0.000000e+00 0.000000e+00 0.000000e+00 
    79.5                0.000000e+00 0.000000e+00 0.000000e+00 0.000000e+00 0.000000e+00 0.000000e+00 0.000000e+00 0.000000e+00 0.000000e+00 0.000000e+00 0.000000e+00 0.000000e+00 


