# 80 rows of flux data
# 12 columns of flux data
# 
# total cross-sectional flux  2.317043e+00 /m^2/yr
#
#                             +x ram      -x wake      +y port -y starboard    +z zenith     -z nadir        Earth          Sun     anti-Sun      rot (x)      rot (y)      rot (z) 
# average speed (km/s)         24.48        24.48        25.25        17.44        23.94        23.65        24.48        24.97        24.97        23.95        24.30        24.43 
# total flux (#/m2/yr)  7.063100e-01 7.058817e-01 1.053466e+00 1.380757e-01 8.868885e-01 8.799503e-04 7.000439e-01 1.011185e+00 1.011427e+00 1.570031e+00 1.835347e+00 2.050047e+00 
# velocity (km/s)
     0.5                0.000000e+00 0.000000e+00 0.000000e+00 0.000000e+00 0.000000e+00 0.000000e+00 0.000000e+00 0.000000e+00 0.000000e+00 0.000000e+00 0.000000e+00 0.000000e+00 
     1.5                0.000000e+00 0.000000e+00 0.000000e+00 0.000000e+00 0.000000e+00 0.000000e+00 0.000000e+00 0.000000e+00 0.000000e+00 0.000000e+00 0.000000e+00 0.000000e+00 
     2.5                1.119664e-06 1.122609e-06 0.000000e+00 3.767161e-06 2.931616e-07 8.560630e-09 1.111452e-06 7.495388e-07 7.099524e-07 3.794091e-06 2.313641e-06 4.600285e-06 
     3.5                4.949886e-05 4.963087e-05 5.903210e-06 5.868875e-05 2.564285e-05 1.173584e-07 4.933422e-05 2.779633e-05 2.778692e-05 7.520243e-05 1.053628e-04 1.307194e-04 
     4.5                2.886697e-04 2.895773e-04 1.691239e-04 2.664097e-04 2.582799e-04 5.000843e-07 2.877726e-04 1.744488e-04 1.742787e-04 5.479320e-04 6.750469e-04 7.989080e-04 
     5.5                1.007374e-03 1.010567e-03 7.618291e-04 8.341521e-04 1.061489e-03 1.532846e-06 1.004240e-03 6.951558e-04 6.945236e-04 2.091973e-03 2.456767e-03 2.843340e-03 
     6.5                2.391906e-03 2.396054e-03 2.497798e-03 1.586850e-03 3.016559e-03 3.305289e-06 2.383847e-03 1.906910e-03 1.906738e-03 5.570979e-03 6.168628e-03 6.968441e-03 
     7.5                4.188302e-03 4.192138e-03 4.588562e-03 2.794345e-03 5.544306e-03 6.057507e-06 4.172652e-03 3.645773e-03 3.645542e-03 1.016435e-02 1.101062e-02 1.238525e-02 
     8.5                6.846153e-03 6.849150e-03 7.657786e-03 4.083517e-03 9.067102e-03 1.021518e-05 6.818301e-03 6.143371e-03 6.144300e-03 1.639762e-02 1.803289e-02 1.998324e-02 
     9.5                9.956210e-03 9.957784e-03 1.189031e-02 5.676340e-03 1.359183e-02 1.379378e-05 9.913518e-03 9.414820e-03 9.416026e-03 2.446495e-02 2.646006e-02 2.942747e-02 
    10.5                1.246695e-02 1.246128e-02 1.584945e-02 6.948261e-03 1.819941e-02 1.695177e-05 1.240579e-02 1.309098e-02 1.309323e-02 3.218061e-02 3.396740e-02 3.749056e-02 
    11.5                1.459141e-02 1.458855e-02 1.824995e-02 7.918241e-03 2.165569e-02 2.024247e-05 1.450379e-02 1.679854e-02 1.680087e-02 3.755956e-02 4.006664e-02 4.349068e-02 
    12.5                1.630077e-02 1.629506e-02 2.097253e-02 8.384205e-03 2.455073e-02 2.223680e-05 1.618990e-02 2.018501e-02 2.018921e-02 4.226323e-02 4.510404e-02 4.869568e-02 
    13.5                1.763391e-02 1.762806e-02 2.271001e-02 8.765463e-03 2.630958e-02 2.447399e-05 1.750043e-02 2.294434e-02 2.294841e-02 4.523311e-02 4.868329e-02 5.243673e-02 
    14.5                1.951197e-02 1.950345e-02 2.527331e-02 8.727985e-03 2.818252e-02 2.719728e-05 1.935331e-02 2.616901e-02 2.617370e-02 4.858004e-02 5.326896e-02 5.738978e-02 
    15.5                2.123779e-02 2.123322e-02 2.831127e-02 8.545154e-03 2.978541e-02 2.969712e-05 2.105751e-02 2.926916e-02 2.927507e-02 5.186101e-02 5.739795e-02 6.239339e-02 
    16.5                2.297524e-02 2.296298e-02 3.148374e-02 8.251483e-03 3.160296e-02 3.134645e-05 2.277272e-02 3.238165e-02 3.238832e-02 5.528292e-02 6.163286e-02 6.737008e-02 
    17.5                2.431665e-02 2.430754e-02 3.384271e-02 7.713014e-03 3.261479e-02 3.327969e-05 2.409540e-02 3.485571e-02 3.486308e-02 5.728295e-02 6.467874e-02 7.093315e-02 
    18.5                2.562748e-02 2.561709e-02 3.627863e-02 7.165082e-03 3.345175e-02 3.499213e-05 2.538789e-02 3.734789e-02 3.735514e-02 5.916033e-02 6.752057e-02 7.450340e-02 
    19.5                2.670402e-02 2.668977e-02 3.856137e-02 6.697082e-03 3.437559e-02 3.577085e-05 2.644832e-02 3.950262e-02 3.951204e-02 6.105266e-02 7.000359e-02 7.761471e-02 
    20.5                2.723520e-02 2.722241e-02 3.989049e-02 6.024930e-03 3.459672e-02 3.615696e-05 2.697048e-02 4.073175e-02 4.074186e-02 6.152658e-02 7.110080e-02 7.900879e-02 
    21.5                2.791138e-02 2.789905e-02 4.109734e-02 5.511691e-03 3.462593e-02 3.690502e-05 2.763855e-02 4.186098e-02 4.187181e-02 6.186025e-02 7.228423e-02 8.063221e-02 
    22.5                2.886995e-02 2.885611e-02 4.280714e-02 5.064076e-03 3.537503e-02 3.764907e-05 2.858572e-02 4.343210e-02 4.344171e-02 6.317145e-02 7.447089e-02 8.315270e-02 
    23.5                2.947173e-02 2.945702e-02 4.440793e-02 4.470924e-03 3.579725e-02 3.781736e-05 2.918031e-02 4.457778e-02 4.458932e-02 6.404472e-02 7.579414e-02 8.489242e-02 
    24.5                2.961127e-02 2.959572e-02 4.505472e-02 3.934304e-03 3.562553e-02 3.751721e-05 2.931793e-02 4.486019e-02 4.487083e-02 6.378534e-02 7.592471e-02 8.522344e-02 
    25.5                2.964620e-02 2.962970e-02 4.547973e-02 3.366372e-03 3.534763e-02 3.690672e-05 2.935402e-02 4.486436e-02 4.487485e-02 6.323498e-02 7.579497e-02 8.518010e-02 
    26.5                2.946249e-02 2.944478e-02 4.563002e-02 2.913758e-03 3.490253e-02 3.606280e-05 2.917328e-02 4.459148e-02 4.460267e-02 6.243980e-02 7.516985e-02 8.465487e-02 
    27.5                2.869513e-02 2.867625e-02 4.492697e-02 2.455273e-03 3.395852e-02 3.446616e-05 2.841495e-02 4.345646e-02 4.346888e-02 6.065417e-02 7.318457e-02 8.254162e-02 
    28.5                2.786569e-02 2.784726e-02 4.370917e-02 2.090033e-03 3.269527e-02 3.314567e-05 2.759577e-02 4.202949e-02 4.203922e-02 5.835237e-02 7.088607e-02 8.000344e-02 
    29.5                2.690528e-02 2.688577e-02 4.252461e-02 1.737530e-03 3.152043e-02 3.137789e-05 2.664706e-02 4.049810e-02 4.050953e-02 5.616096e-02 6.839540e-02 7.727858e-02 
    30.5                2.561140e-02 2.559361e-02 4.073428e-02 1.417510e-03 2.993512e-02 2.951634e-05 2.536834e-02 3.844644e-02 3.845563e-02 5.327385e-02 6.506698e-02 7.359021e-02 
    31.5                2.419230e-02 2.417335e-02 3.870318e-02 1.136281e-03 2.822069e-02 2.748029e-05 2.396491e-02 3.617936e-02 3.618945e-02 5.014315e-02 6.141774e-02 6.953792e-02 
    32.5                2.257081e-02 2.255260e-02 3.630776e-02 9.024281e-04 2.629914e-02 2.530332e-05 2.236154e-02 3.359963e-02 3.360858e-02 4.665101e-02 5.727815e-02 6.491517e-02 
    33.5                2.073081e-02 2.071059e-02 3.358606e-02 7.215680e-04 2.420377e-02 2.284002e-05 2.054149e-02 3.071453e-02 3.072252e-02 4.286920e-02 5.262904e-02 5.971818e-02 
    34.5                1.863643e-02 1.861907e-02 3.037880e-02 5.612986e-04 2.180781e-02 2.031945e-05 1.846948e-02 2.747070e-02 2.747750e-02 3.856468e-02 4.734252e-02 5.376403e-02 
    35.5                1.653766e-02 1.652020e-02 2.710694e-02 4.215698e-04 1.938219e-02 1.780032e-05 1.639178e-02 2.424408e-02 2.425199e-02 3.422236e-02 4.202540e-02 4.776493e-02 
    36.5                1.443855e-02 1.442320e-02 2.378200e-02 3.071430e-04 1.694111e-02 1.538567e-05 1.431387e-02 2.102585e-02 2.103093e-02 2.986626e-02 3.670102e-02 4.174919e-02 
    37.5                1.242848e-02 1.241385e-02 2.058411e-02 2.203799e-04 1.461853e-02 1.305061e-05 1.232331e-02 1.796793e-02 1.797353e-02 2.573132e-02 3.160872e-02 3.598692e-02 
    38.5                1.046209e-02 1.044842e-02 1.743710e-02 1.531597e-04 1.235161e-02 1.083197e-05 1.037533e-02 1.502470e-02 1.502934e-02 2.171080e-02 2.663422e-02 3.035178e-02 
    39.5                8.555746e-03 8.543862e-03 1.441592e-02 1.011664e-04 1.018730e-02 8.658024e-06 8.486643e-03 1.222151e-02 1.222505e-02 1.788269e-02 2.183158e-02 2.491582e-02 
    40.5                6.698289e-03 6.687015e-03 1.142954e-02 6.397596e-05 8.062035e-03 6.612243e-06 6.645596e-03 9.517121e-03 9.520197e-03 1.413409e-02 1.714384e-02 1.959906e-02 
    41.5                4.993700e-03 4.984711e-03 8.647626e-03 3.814131e-05 6.090802e-03 4.794419e-06 4.955584e-03 7.066146e-03 7.068372e-03 1.066588e-02 1.283059e-02 1.469646e-02 
    42.5                3.547017e-03 3.540445e-03 6.212694e-03 2.178707e-05 4.370842e-03 3.330264e-06 3.520697e-03 4.991098e-03 4.992411e-03 7.646247e-03 9.141661e-03 1.048709e-02 
    43.5                2.397315e-03 2.391733e-03 4.272582e-03 1.166227e-05 3.003359e-03 2.164089e-06 2.380028e-03 3.360451e-03 3.361898e-03 5.249317e-03 6.207341e-03 7.136792e-03 
    44.5                1.470557e-03 1.466936e-03 2.710228e-03 5.505134e-06 1.903602e-03 1.240768e-06 1.460389e-03 2.071517e-03 2.072361e-03 3.324678e-03 3.846153e-03 4.440781e-03 
    45.5                7.885670e-04 7.861863e-04 1.511612e-03 2.258233e-06 1.061101e-03 6.042092e-07 7.833862e-04 1.119641e-03 1.120008e-03 1.852044e-03 2.087370e-03 2.422164e-03 
    46.5                3.453387e-04 3.441395e-04 7.046818e-04 7.361623e-07 4.943993e-04 2.259437e-07 3.432340e-04 5.009911e-04 5.013210e-04 8.625568e-04 9.327992e-04 1.091052e-03 
    47.5                1.086814e-04 1.082994e-04 2.420060e-04 1.658110e-07 1.697097e-04 5.915233e-08 1.080829e-04 1.639863e-04 1.640462e-04 2.959999e-04 3.030619e-04 3.585662e-04 
    48.5                2.364465e-05 2.355711e-05 5.823246e-05 2.306967e-08 4.081898e-05 8.903050e-09 2.353155e-05 3.743711e-05 3.747866e-05 7.117972e-05 6.849677e-05 8.212556e-05 
    49.5                2.780539e-06 2.775033e-06 8.072978e-06 7.267775e-10 5.656160e-06 3.099735e-10 2.771000e-06 4.840372e-06 4.847863e-06 9.861832e-06 8.620344e-06 1.056216e-05 
    50.5                5.340537e-08 5.405138e-08 2.315459e-07 0.000000e+00 1.621708e-07 0.000000e+00 5.348468e-08 1.241014e-07 1.238957e-07 2.827593e-07 2.043513e-07 2.642269e-07 
    51.5                0.000000e+00 0.000000e+00 0.000000e+00 0.000000e+00 0.000000e+00 0.000000e+00 0.000000e+00 0.000000e+00 0.000000e+00 0.000000e+00 0.000000e+00 0.000000e+00 
    52.5                0.000000e+00 0.000000e+00 0.000000e+00 0.000000e+00 0.000000e+00 0.000000e+00 0.000000e+00 0.000000e+00 0.000000e+00 0.000000e+00 0.000000e+00 0.000000e+00 
    53.5                0.000000e+00 0.000000e+00 0.000000e+00 0.000000e+00 0.000000e+00 0.000000e+00 0.000000e+00 0.000000e+00 0.000000e+00 0.000000e+00 0.000000e+00 0.000000e+00 
    54.5                0.000000e+00 0.000000e+00 0.000000e+00 0.000000e+00 0.000000e+00 0.000000e+00 0.000000e+00 0.000000e+00 0.000000e+00 0.000000e+00 0.000000e+00 0.000000e+00 
    55.5                0.000000e+00 0.000000e+00 0.000000e+00 0.000000e+00 0.000000e+00 0.000000e+00 0.000000e+00 0.000000e+00 0.000000e+00 0.000000e+00 0.000000e+00 0.000000e+00 
    56.5                0.000000e+00 0.000000e+00 0.000000e+00 0.000000e+00 0.000000e+00 0.000000e+00 0.000000e+00 0.000000e+00 0.000000e+00 0.000000e+00 0.000000e+00 0.000000e+00 
    57.5                0.000000e+00 0.000000e+00 0.000000e+00 0.000000e+00 0.000000e+00 0.000000e+00 0.000000e+00 0.000000e+00 0.000000e+00 0.000000e+00 0.000000e+00 0.000000e+00 
    58.5                0.000000e+00 0.000000e+00 0.000000e+00 0.000000e+00 0.000000e+00 0.000000e+00 0.000000e+00 0.000000e+00 0.000000e+00 0.000000e+00 0.000000e+00 0.000000e+00 
    59.5                0.000000e+00 0.000000e+00 0.000000e+00 0.000000e+00 0.000000e+00 0.000000e+00 0.000000e+00 0.000000e+00 0.000000e+00 0.000000e+00 0.000000e+00 0.000000e+00 
    60.5                0.000000e+00 0.000000e+00 0.000000e+00 0.000000e+00 0.000000e+00 0.000000e+00 0.000000e+00 0.000000e+00 0.000000e+00 0.000000e+00 0.000000e+00 0.000000e+00 
    61.5                0.000000e+00 0.000000e+00 0.000000e+00 0.000000e+00 0.000000e+00 0.000000e+00 0.000000e+00 0.000000e+00 0.000000e+00 0.000000e+00 0.000000e+00 0.000000e+00 
    62.5                0.000000e+00 0.000000e+00 0.000000e+00 0.000000e+00 0.000000e+00 0.000000e+00 0.000000e+00 0.000000e+00 0.000000e+00 0.000000e+00 0.000000e+00 0.000000e+00 
    63.5                0.000000e+00 0.000000e+00 0.000000e+00 0.000000e+00 0.000000e+00 0.000000e+00 0.000000e+00 0.000000e+00 0.000000e+00 0.000000e+00 0.000000e+00 0.000000e+00 
    64.5                0.000000e+00 0.000000e+00 0.000000e+00 0.000000e+00 0.000000e+00 0.000000e+00 0.000000e+00 0.000000e+00 0.000000e+00 0.000000e+00 0.000000e+00 0.000000e+00 
    65.5                0.000000e+00 0.000000e+00 0.000000e+00 0.000000e+00 0.000000e+00 0.000000e+00 0.000000e+00 0.000000e+00 0.000000e+00 0.000000e+00 0.000000e+00 0.000000e+00 
    66.5                0.000000e+00 0.000000e+00 0.000000e+00 0.000000e+00 0.000000e+00 0.000000e+00 0.000000e+00 0.000000e+00 0.000000e+00 0.000000e+00 0.000000e+00 0.000000e+00 
    67.5                0.000000e+00 0.000000e+00 0.000000e+00 0.000000e+00 0.000000e+00 0.000000e+00 0.000000e+00 0.000000e+00 0.000000e+00 0.000000e+00 0.000000e+00 0.000000e+00 
    68.5                0.000000e+00 0.000000e+00 0.000000e+00 0.000000e+00 0.000000e+00 0.000000e+00 0.000000e+00 0.000000e+00 0.000000e+00 0.000000e+00 0.000000e+00 0.000000e+00 
    69.5                0.000000e+00 0.000000e+00 0.000000e+00 0.000000e+00 0.000000e+00 0.000000e+00 0.000000e+00 0.000000e+00 0.000000e+00 0.000000e+00 0.000000e+00 0.000000e+00 
    70.5                0.000000e+00 0.000000e+00 0.000000e+00 0.000000e+00 0.000000e+00 0.000000e+00 0.000000e+00 0.000000e+00 0.000000e+00 0.000000e+00 0.000000e+00 0.000000e+00 
    71.5                0.000000e+00 0.000000e+00 0.000000e+00 0.000000e+00 0.000000e+00 0.000000e+00 0.000000e+00 0.000000e+00 0.000000e+00 0.000000e+00 0.000000e+00 0.000000e+00 
    72.5                0.000000e+00 0.000000e+00 0.000000e+00 0.000000e+00 0.000000e+00 0.000000e+00 0.000000e+00 0.000000e+00 0.000000e+00 0.000000e+00 0.000000e+00 0.000000e+00 
    73.5                0.000000e+00 0.000000e+00 0.000000e+00 0.000000e+00 0.000000e+00 0.000000e+00 0.000000e+00 0.000000e+00 0.000000e+00 0.000000e+00 0.000000e+00 0.000000e+00 
    74.5                0.000000e+00 0.000000e+00 0.000000e+00 0.000000e+00 0.000000e+00 0.000000e+00 0.000000e+00 0.000000e+00 0.000000e+00 0.000000e+00 0.000000e+00 0.000000e+00 
    75.5                0.000000e+00 0.000000e+00 0.000000e+00 0.000000e+00 0.000000e+00 0.000000e+00 0.000000e+00 0.000000e+00 0.000000e+00 0.000000e+00 0.000000e+00 0.000000e+00 
    76.5                0.000000e+00 0.000000e+00 0.000000e+00 0.000000e+00 0.000000e+00 0.000000e+00 0.000000e+00 0.000000e+00 0.000000e+00 0.000000e+00 0.000000e+00 0.000000e+00 
    77.5                0.000000e+00 0.000000e+00 0.000000e+00 0.000000e+00 0.000000e+00 0.000000e+00 0.000000e+00 0.000000e+00 0.000000e+00 0.000000e+00 0.000000e+00 0.000000e+00 
    78.5                0.000000e+00 0.000000e+00 0.000000e+00 0.000000e+00 0.000000e+00 0.000000e+00 0.000000e+00 0.000000e+00 0.000000e+00 0.000000e+00 0.000000e+00 0.000000e+00 
    79.5                0.000000e+00 0.000000e+00 0.000000e+00 0.000000e+00 0.000000e+00 0.000000e+00 0.000000e+00 0.000000e+00 0.000000e+00 0.000000e+00 0.000000e+00 0.000000e+00 


