# 80 rows of flux data
# 12 columns of flux data
# 
# total cross-sectional flux  2.166668e+00 /m^2/yr
#
#                             +x ram      -x wake      +y port -y starboard    +z zenith     -z nadir        Earth          Sun     anti-Sun      rot (x)      rot (y)      rot (z) 
# average speed (km/s)         24.66        23.82        24.35        17.31        24.07        23.47        18.37        24.67        24.66        23.60        24.19        24.02 
# total flux (#/m2/yr)  7.216260e-01 6.154383e-01 7.322369e-01 1.018507e-01 1.086597e+00 6.175856e-04 2.565059e-02 9.528949e-01 9.393385e-01 1.451731e+00 1.916103e+00 1.728777e+00 
# velocity (km/s)
     0.5                0.000000e+00 0.000000e+00 0.000000e+00 0.000000e+00 0.000000e+00 0.000000e+00 0.000000e+00 0.000000e+00 0.000000e+00 0.000000e+00 0.000000e+00 0.000000e+00 
     1.5                0.000000e+00 0.000000e+00 0.000000e+00 0.000000e+00 0.000000e+00 0.000000e+00 0.000000e+00 0.000000e+00 0.000000e+00 0.000000e+00 0.000000e+00 0.000000e+00 
     2.5                0.000000e+00 5.326999e-06 7.210404e-07 6.590317e-07 2.398679e-06 1.477190e-09 1.453602e-07 1.917052e-06 1.830370e-07 2.995920e-06 6.052384e-06 5.588035e-06 
     3.5                3.188478e-06 1.230885e-04 4.947827e-05 1.850569e-05 9.488349e-05 4.756378e-08 4.557666e-06 5.700308e-05 2.344720e-05 1.257076e-04 1.746522e-04 1.547504e-04 
     4.5                1.250651e-04 5.564547e-04 3.186696e-04 1.112772e-04 5.459867e-04 3.115970e-07 2.772156e-05 2.951811e-04 1.773579e-04 7.577638e-04 9.683408e-04 8.788456e-04 
     5.5                5.855123e-04 1.497720e-03 1.116459e-03 3.941561e-04 1.826081e-03 9.991876e-07 9.573722e-05 9.705020e-04 7.393453e-04 2.609513e-03 3.083167e-03 2.829029e-03 
     6.5                1.952860e-03 2.804249e-03 2.541098e-03 8.868345e-04 4.058849e-03 2.447616e-06 2.151339e-04 2.198292e-03 1.887142e-03 5.883719e-03 6.959605e-03 6.442828e-03 
     7.5                3.630292e-03 4.962153e-03 4.544123e-03 1.727776e-03 7.249208e-03 4.659812e-06 4.133623e-04 3.990076e-03 3.708794e-03 1.064218e-02 1.250712e-02 1.169702e-02 
     8.5                6.109275e-03 7.377302e-03 7.332187e-03 2.583409e-03 1.157369e-02 7.199331e-06 6.063700e-04 6.414757e-03 6.292251e-03 1.689817e-02 1.977646e-02 1.839287e-02 
     9.5                9.319148e-03 9.376089e-03 1.024554e-02 3.649182e-03 1.613824e-02 1.013659e-05 8.551764e-04 9.388115e-03 9.387568e-03 2.363805e-02 2.749412e-02 2.562920e-02 
    10.5                1.259460e-02 1.139736e-02 1.283027e-02 4.955852e-03 2.024414e-02 1.361916e-05 1.159165e-03 1.286331e-02 1.281546e-02 3.000464e-02 3.493408e-02 3.285559e-02 
    11.5                1.483939e-02 1.307407e-02 1.509264e-02 6.088735e-03 2.390163e-02 1.616831e-05 1.414811e-03 1.631590e-02 1.616154e-02 3.553416e-02 4.092013e-02 3.859733e-02 
    12.5                1.701326e-02 1.432668e-02 1.666454e-02 6.910871e-03 2.660463e-02 1.799813e-05 1.591025e-03 1.938021e-02 1.917904e-02 3.943568e-02 4.575271e-02 4.319032e-02 
    13.5                1.827709e-02 1.626040e-02 1.826896e-02 7.371236e-03 2.920457e-02 1.942830e-05 1.694143e-03 2.233813e-02 2.210522e-02 4.297104e-02 5.031895e-02 4.739637e-02 
    14.5                1.992125e-02 1.794670e-02 2.027932e-02 7.304672e-03 3.208456e-02 2.045347e-05 1.659741e-03 2.547787e-02 2.519881e-02 4.656954e-02 5.523483e-02 5.163052e-02 
    15.5                2.163655e-02 1.949369e-02 2.216051e-02 6.933343e-03 3.463208e-02 2.141174e-05 1.564295e-03 2.845411e-02 2.814469e-02 4.952115e-02 5.984537e-02 5.549692e-02 
    16.5                2.347833e-02 2.088869e-02 2.399878e-02 6.567819e-03 3.702507e-02 2.252671e-05 1.487178e-03 3.126048e-02 3.092078e-02 5.233892e-02 6.430618e-02 5.930761e-02 
    17.5                2.481511e-02 2.223327e-02 2.549776e-02 6.075659e-03 3.893321e-02 2.337228e-05 1.398737e-03 3.376271e-02 3.340210e-02 5.438971e-02 6.794354e-02 6.229697e-02 
    18.5                2.602750e-02 2.320703e-02 2.690132e-02 5.399120e-03 4.060829e-02 2.382458e-05 1.259427e-03 3.597186e-02 3.558750e-02 5.602975e-02 7.100869e-02 6.469491e-02 
    19.5                2.719879e-02 2.393468e-02 2.794097e-02 4.934649e-03 4.186616e-02 2.437921e-05 1.172210e-03 3.775381e-02 3.734835e-02 5.726443e-02 7.352170e-02 6.674325e-02 
    20.5                2.780375e-02 2.459737e-02 2.865167e-02 4.414748e-03 4.266341e-02 2.444247e-05 1.059985e-03 3.898412e-02 3.855438e-02 5.780216e-02 7.516190e-02 6.797216e-02 
    21.5                2.825612e-02 2.560407e-02 2.955017e-02 3.866893e-03 4.366532e-02 2.477542e-05 9.671065e-04 4.033813e-02 3.986965e-02 5.862754e-02 7.710893e-02 6.946141e-02 
    22.5                2.914551e-02 2.622555e-02 3.053413e-02 3.516997e-03 4.493649e-02 2.501514e-05 8.901770e-04 4.173578e-02 4.122942e-02 5.987444e-02 7.931654e-02 7.123616e-02 
    23.5                2.991186e-02 2.646154e-02 3.106799e-02 3.038144e-03 4.548585e-02 2.513501e-05 8.024397e-04 4.253767e-02 4.200071e-02 6.013432e-02 8.054592e-02 7.213790e-02 
    24.5                3.007133e-02 2.658913e-02 3.124395e-02 2.645138e-03 4.557344e-02 2.499569e-05 7.248820e-04 4.278209e-02 4.221621e-02 5.983233e-02 8.084781e-02 7.224807e-02 
    25.5                3.011618e-02 2.646386e-02 3.126779e-02 2.245998e-03 4.544665e-02 2.466982e-05 6.455005e-04 4.272567e-02 4.213342e-02 5.923254e-02 8.068641e-02 7.193745e-02 
    26.5                2.997839e-02 2.579281e-02 3.085447e-02 1.926284e-03 4.474363e-02 2.407980e-05 5.767531e-04 4.208803e-02 4.148604e-02 5.794948e-02 7.949372e-02 7.075059e-02 
    27.5                2.935673e-02 2.513537e-02 3.005843e-02 1.629382e-03 4.349559e-02 2.342932e-05 5.131503e-04 4.097622e-02 4.037582e-02 5.602351e-02 7.750457e-02 6.891199e-02 
    28.5                2.840692e-02 2.428510e-02 2.916063e-02 1.389972e-03 4.213450e-02 2.243035e-05 4.561089e-04 3.957326e-02 3.897437e-02 5.398935e-02 7.499835e-02 6.658457e-02 
    29.5                2.751952e-02 2.315397e-02 2.803413e-02 1.149754e-03 4.043555e-02 2.146395e-05 4.011948e-04 3.791689e-02 3.732703e-02 5.156412e-02 7.206066e-02 6.391414e-02 
    30.5                2.625710e-02 2.189393e-02 2.663623e-02 9.548128e-04 3.837234e-02 2.030801e-05 3.532901e-04 3.587888e-02 3.530912e-02 4.871087e-02 6.843709e-02 6.064723e-02 
    31.5                2.485492e-02 2.042064e-02 2.505493e-02 7.632386e-04 3.604815e-02 1.899691e-05 3.038812e-04 3.356897e-02 3.302368e-02 4.554874e-02 6.432690e-02 5.695271e-02 
    32.5                2.324707e-02 1.872331e-02 2.324123e-02 6.107362e-04 3.340584e-02 1.753198e-05 2.614686e-04 3.093422e-02 3.042424e-02 4.203934e-02 5.962297e-02 5.274771e-02 
    33.5                2.145414e-02 1.681597e-02 2.117214e-02 4.824656e-04 3.040579e-02 1.595498e-05 2.230036e-04 2.800016e-02 2.753157e-02 3.813520e-02 5.432502e-02 4.804095e-02 
    34.5                1.937575e-02 1.491025e-02 1.895407e-02 3.784709e-04 2.720293e-02 1.426449e-05 1.887709e-04 2.489781e-02 2.447701e-02 3.401559e-02 4.864159e-02 4.300007e-02 
    35.5                1.725940e-02 1.301217e-02 1.671618e-02 2.894180e-04 2.397736e-02 1.257983e-05 1.574202e-04 2.180367e-02 2.143164e-02 2.989277e-02 4.291646e-02 3.792771e-02 
    36.5                1.511975e-02 1.117066e-02 1.452430e-02 2.096704e-04 2.081854e-02 1.089120e-05 1.276655e-04 1.877891e-02 1.845500e-02 2.587628e-02 3.726710e-02 3.291958e-02 
    37.5                1.307044e-02 9.385842e-03 1.239573e-02 1.510399e-04 1.775879e-02 9.290649e-06 1.030913e-04 1.588701e-02 1.561261e-02 2.201481e-02 3.181337e-02 2.809549e-02 
    38.5                1.106209e-02 7.628557e-03 1.032363e-02 1.041891e-04 1.478377e-02 7.722420e-06 8.122509e-05 1.310254e-02 1.287627e-02 1.828234e-02 2.648200e-02 2.337797e-02 
    39.5                9.139019e-03 5.929287e-03 8.305328e-03 6.916417e-05 1.188893e-02 6.221991e-06 6.244620e-05 1.044257e-02 1.026411e-02 1.467156e-02 2.132665e-02 1.882693e-02 
    40.5                7.243216e-03 4.382030e-03 6.385367e-03 4.390066e-05 9.137660e-03 4.812199e-06 4.635650e-05 7.955313e-03 7.821792e-03 1.125554e-02 1.642860e-02 1.450613e-02 
    41.5                5.479902e-03 3.090943e-03 4.676935e-03 2.647060e-05 6.691212e-03 3.564242e-06 3.303658e-05 5.781440e-03 5.686869e-03 8.228842e-03 1.207822e-02 1.067153e-02 
    42.5                3.937100e-03 2.063052e-03 3.265589e-03 1.514542e-05 4.671083e-03 2.503656e-06 2.242508e-05 3.996478e-03 3.932912e-03 5.736537e-03 8.446230e-03 7.463854e-03 
    43.5                2.707690e-03 1.235092e-03 2.136485e-03 8.102365e-06 3.055444e-03 1.647771e-06 1.433773e-05 2.589410e-03 2.550449e-03 3.748143e-03 5.539920e-03 4.897755e-03 
    44.5                1.719152e-03 6.421857e-04 1.256383e-03 4.053271e-06 1.796462e-03 9.980813e-07 8.557772e-06 1.518281e-03 1.498128e-03 2.201944e-03 3.292869e-03 2.917458e-03 
    45.5                9.599797e-04 2.660606e-04 6.360322e-04 1.777558e-06 9.092686e-04 5.292157e-07 4.477888e-06 7.694320e-04 7.608877e-04 1.113834e-03 1.692190e-03 1.503770e-03 
    46.5                4.483559e-04 7.799226e-05 2.570901e-04 6.768618e-07 3.674437e-04 2.392888e-07 2.006749e-06 3.172662e-04 3.150303e-04 4.500116e-04 7.094767e-04 6.349773e-04 
    47.5                1.546570e-04 1.520977e-05 7.561305e-05 2.072396e-07 1.080396e-04 8.327894e-08 7.011086e-07 9.706975e-05 9.702107e-05 1.323326e-04 2.213570e-04 2.002147e-04 
    48.5                3.736158e-05 1.359949e-06 1.523484e-05 4.404600e-08 2.175870e-05 2.031378e-08 1.676340e-07 2.074021e-05 2.088384e-05 2.665810e-05 4.833052e-05 4.431043e-05 
    49.5                5.205792e-06 1.187396e-08 1.644121e-06 6.082109e-09 2.346750e-06 2.939031e-09 2.491076e-08 2.537984e-06 2.585101e-06 2.878221e-06 6.072629e-06 5.695081e-06 
    50.5                1.506392e-07 0.000000e+00 3.150690e-08 1.966564e-10 4.492522e-08 9.687814e-11 8.841144e-10 6.498938e-08 6.676448e-08 5.527247e-08 1.605906e-07 1.557454e-07 
    51.5                0.000000e+00 0.000000e+00 0.000000e+00 0.000000e+00 0.000000e+00 0.000000e+00 0.000000e+00 0.000000e+00 0.000000e+00 0.000000e+00 0.000000e+00 0.000000e+00 
    52.5                0.000000e+00 0.000000e+00 0.000000e+00 0.000000e+00 0.000000e+00 0.000000e+00 0.000000e+00 0.000000e+00 0.000000e+00 0.000000e+00 0.000000e+00 0.000000e+00 
    53.5                0.000000e+00 0.000000e+00 0.000000e+00 0.000000e+00 0.000000e+00 0.000000e+00 0.000000e+00 0.000000e+00 0.000000e+00 0.000000e+00 0.000000e+00 0.000000e+00 
    54.5                0.000000e+00 0.000000e+00 0.000000e+00 0.000000e+00 0.000000e+00 0.000000e+00 0.000000e+00 0.000000e+00 0.000000e+00 0.000000e+00 0.000000e+00 0.000000e+00 
    55.5                0.000000e+00 0.000000e+00 0.000000e+00 0.000000e+00 0.000000e+00 0.000000e+00 0.000000e+00 0.000000e+00 0.000000e+00 0.000000e+00 0.000000e+00 0.000000e+00 
    56.5                0.000000e+00 0.000000e+00 0.000000e+00 0.000000e+00 0.000000e+00 0.000000e+00 0.000000e+00 0.000000e+00 0.000000e+00 0.000000e+00 0.000000e+00 0.000000e+00 
    57.5                0.000000e+00 0.000000e+00 0.000000e+00 0.000000e+00 0.000000e+00 0.000000e+00 0.000000e+00 0.000000e+00 0.000000e+00 0.000000e+00 0.000000e+00 0.000000e+00 
    58.5                0.000000e+00 0.000000e+00 0.000000e+00 0.000000e+00 0.000000e+00 0.000000e+00 0.000000e+00 0.000000e+00 0.000000e+00 0.000000e+00 0.000000e+00 0.000000e+00 
    59.5                0.000000e+00 0.000000e+00 0.000000e+00 0.000000e+00 0.000000e+00 0.000000e+00 0.000000e+00 0.000000e+00 0.000000e+00 0.000000e+00 0.000000e+00 0.000000e+00 
    60.5                0.000000e+00 0.000000e+00 0.000000e+00 0.000000e+00 0.000000e+00 0.000000e+00 0.000000e+00 0.000000e+00 0.000000e+00 0.000000e+00 0.000000e+00 0.000000e+00 
    61.5                0.000000e+00 0.000000e+00 0.000000e+00 0.000000e+00 0.000000e+00 0.000000e+00 0.000000e+00 0.000000e+00 0.000000e+00 0.000000e+00 0.000000e+00 0.000000e+00 
    62.5                0.000000e+00 0.000000e+00 0.000000e+00 0.000000e+00 0.000000e+00 0.000000e+00 0.000000e+00 0.000000e+00 0.000000e+00 0.000000e+00 0.000000e+00 0.000000e+00 
    63.5                0.000000e+00 0.000000e+00 0.000000e+00 0.000000e+00 0.000000e+00 0.000000e+00 0.000000e+00 0.000000e+00 0.000000e+00 0.000000e+00 0.000000e+00 0.000000e+00 
    64.5                0.000000e+00 0.000000e+00 0.000000e+00 0.000000e+00 0.000000e+00 0.000000e+00 0.000000e+00 0.000000e+00 0.000000e+00 0.000000e+00 0.000000e+00 0.000000e+00 
    65.5                0.000000e+00 0.000000e+00 0.000000e+00 0.000000e+00 0.000000e+00 0.000000e+00 0.000000e+00 0.000000e+00 0.000000e+00 0.000000e+00 0.000000e+00 0.000000e+00 
    66.5                0.000000e+00 0.000000e+00 0.000000e+00 0.000000e+00 0.000000e+00 0.000000e+00 0.000000e+00 0.000000e+00 0.000000e+00 0.000000e+00 0.000000e+00 0.000000e+00 
    67.5                0.000000e+00 0.000000e+00 0.000000e+00 0.000000e+00 0.000000e+00 0.000000e+00 0.000000e+00 0.000000e+00 0.000000e+00 0.000000e+00 0.000000e+00 0.000000e+00 
    68.5                0.000000e+00 0.000000e+00 0.000000e+00 0.000000e+00 0.000000e+00 0.000000e+00 0.000000e+00 0.000000e+00 0.000000e+00 0.000000e+00 0.000000e+00 0.000000e+00 
    69.5                0.000000e+00 0.000000e+00 0.000000e+00 0.000000e+00 0.000000e+00 0.000000e+00 0.000000e+00 0.000000e+00 0.000000e+00 0.000000e+00 0.000000e+00 0.000000e+00 
    70.5                0.000000e+00 0.000000e+00 0.000000e+00 0.000000e+00 0.000000e+00 0.000000e+00 0.000000e+00 0.000000e+00 0.000000e+00 0.000000e+00 0.000000e+00 0.000000e+00 
    71.5                0.000000e+00 0.000000e+00 0.000000e+00 0.000000e+00 0.000000e+00 0.000000e+00 0.000000e+00 0.000000e+00 0.000000e+00 0.000000e+00 0.000000e+00 0.000000e+00 
    72.5                0.000000e+00 0.000000e+00 0.000000e+00 0.000000e+00 0.000000e+00 0.000000e+00 0.000000e+00 0.000000e+00 0.000000e+00 0.000000e+00 0.000000e+00 0.000000e+00 
    73.5                0.000000e+00 0.000000e+00 0.000000e+00 0.000000e+00 0.000000e+00 0.000000e+00 0.000000e+00 0.000000e+00 0.000000e+00 0.000000e+00 0.000000e+00 0.000000e+00 
    74.5                0.000000e+00 0.000000e+00 0.000000e+00 0.000000e+00 0.000000e+00 0.000000e+00 0.000000e+00 0.000000e+00 0.000000e+00 0.000000e+00 0.000000e+00 0.000000e+00 
    75.5                0.000000e+00 0.000000e+00 0.000000e+00 0.000000e+00 0.000000e+00 0.000000e+00 0.000000e+00 0.000000e+00 0.000000e+00 0.000000e+00 0.000000e+00 0.000000e+00 
    76.5                0.000000e+00 0.000000e+00 0.000000e+00 0.000000e+00 0.000000e+00 0.000000e+00 0.000000e+00 0.000000e+00 0.000000e+00 0.000000e+00 0.000000e+00 0.000000e+00 
    77.5                0.000000e+00 0.000000e+00 0.000000e+00 0.000000e+00 0.000000e+00 0.000000e+00 0.000000e+00 0.000000e+00 0.000000e+00 0.000000e+00 0.000000e+00 0.000000e+00 
    78.5                0.000000e+00 0.000000e+00 0.000000e+00 0.000000e+00 0.000000e+00 0.000000e+00 0.000000e+00 0.000000e+00 0.000000e+00 0.000000e+00 0.000000e+00 0.000000e+00 
    79.5                0.000000e+00 0.000000e+00 0.000000e+00 0.000000e+00 0.000000e+00 0.000000e+00 0.000000e+00 0.000000e+00 0.000000e+00 0.000000e+00 0.000000e+00 0.000000e+00 


