# 80 rows of flux data
# 12 columns of flux data
# 
# total cross-sectional flux  1.025398e+00 /m^2/yr
#
#                       +x vernal eq.           -x           +y           -y +z eclip. N. -z eclip. S.        Earth          Sun     anti-Sun      rot (x)      rot (y)      rot (z) 
# average speed (km/s)         37.35        37.45        37.40        37.43        31.66        21.23        37.18        27.83        27.83        33.74        33.74        37.41 
# total flux (#/m2/yr)  2.232719e-01 2.411823e-01 2.298883e-01 2.339997e-01 6.342168e-01 3.652546e-04 2.348658e-01 1.664872e-01 1.665562e-01 8.503692e-01 8.506156e-01 7.290861e-01 
# velocity (km/s)
     0.5                0.000000e+00 0.000000e+00 0.000000e+00 0.000000e+00 0.000000e+00 0.000000e+00 0.000000e+00 0.000000e+00 0.000000e+00 0.000000e+00 0.000000e+00 0.000000e+00 
     1.5                0.000000e+00 0.000000e+00 0.000000e+00 0.000000e+00 0.000000e+00 0.000000e+00 0.000000e+00 0.000000e+00 0.000000e+00 0.000000e+00 0.000000e+00 0.000000e+00 
     2.5                9.428983e-05 7.226717e-05 8.459836e-05 8.026357e-05 1.552615e-04 4.724660e-07 9.522494e-05 8.388942e-05 8.421845e-05 2.508113e-04 2.522152e-04 2.601335e-04 
     3.5                4.664471e-04 4.031280e-04 4.414440e-04 4.281591e-04 7.488578e-04 3.159442e-06 4.835976e-04 4.404515e-04 4.439142e-04 1.269083e-03 1.270285e-03 1.365600e-03 
     4.5                9.118227e-04 9.110597e-04 9.153116e-04 9.146779e-04 1.633345e-03 7.096500e-06 1.000527e-03 9.735979e-04 9.783306e-04 2.720373e-03 2.713945e-03 2.868739e-03 
     5.5                1.392917e-03 1.474964e-03 1.427720e-03 1.443636e-03 2.744921e-03 1.027992e-05 1.543730e-03 1.604512e-03 1.608018e-03 4.405776e-03 4.406371e-03 4.507879e-03 
     6.5                1.834805e-03 2.039573e-03 1.917190e-03 1.961374e-03 4.123592e-03 1.221747e-05 2.062374e-03 2.235346e-03 2.236093e-03 6.283041e-03 6.283877e-03 6.089837e-03 
     7.5                2.236668e-03 2.544041e-03 2.359916e-03 2.427856e-03 5.611096e-03 1.406327e-05 2.526601e-03 2.813228e-03 2.811957e-03 8.173992e-03 8.168129e-03 7.514640e-03 
     8.5                2.622286e-03 3.004586e-03 2.758496e-03 2.845035e-03 7.077429e-03 1.573113e-05 2.947996e-03 3.351832e-03 3.350216e-03 9.981724e-03 9.998355e-03 8.819493e-03 
     9.5                2.958334e-03 3.334223e-03 3.100350e-03 3.183097e-03 8.499877e-03 1.631988e-05 3.294567e-03 3.820532e-03 3.819806e-03 1.165050e-02 1.166061e-02 9.877495e-03 
    10.5                3.271594e-03 3.622962e-03 3.412254e-03 3.490166e-03 9.911445e-03 1.666361e-05 3.586130e-03 4.267272e-03 4.267811e-03 1.326364e-02 1.326560e-02 1.083689e-02 
    11.5                3.577693e-03 3.930452e-03 3.705405e-03 3.784255e-03 1.156877e-02 1.692966e-05 3.895539e-03 4.723821e-03 4.725259e-03 1.508460e-02 1.509775e-02 1.177899e-02 
    12.5                3.726852e-03 4.216134e-03 3.916823e-03 4.027662e-03 1.283127e-02 1.682356e-05 4.114916e-03 5.046573e-03 5.048672e-03 1.645326e-02 1.645473e-02 1.247743e-02 
    13.5                3.788397e-03 4.359022e-03 3.983510e-03 4.113853e-03 1.393673e-02 1.668159e-05 4.191084e-03 5.179220e-03 5.181698e-03 1.753266e-02 1.756211e-02 1.275732e-02 
    14.5                3.850459e-03 4.325020e-03 4.023364e-03 4.130492e-03 1.455944e-02 1.644887e-05 4.209552e-03 5.234520e-03 5.237402e-03 1.811074e-02 1.812432e-02 1.282466e-02 
    15.5                3.955723e-03 4.450888e-03 4.125227e-03 4.237451e-03 1.574177e-02 1.562832e-05 4.314385e-03 5.346492e-03 5.349305e-03 1.926282e-02 1.928019e-02 1.316847e-02 
    16.5                3.956224e-03 4.415778e-03 4.137368e-03 4.242083e-03 1.605810e-02 1.406908e-05 4.292613e-03 5.357939e-03 5.360336e-03 1.952638e-02 1.952594e-02 1.315596e-02 
    17.5                3.964249e-03 4.460844e-03 4.142109e-03 4.254753e-03 1.653006e-02 1.321138e-05 4.309866e-03 5.322159e-03 5.324874e-03 1.993532e-02 1.994938e-02 1.320998e-02 
    18.5                4.023158e-03 4.429569e-03 4.174758e-03 4.267103e-03 1.703418e-02 1.313754e-05 4.324633e-03 5.287678e-03 5.290562e-03 2.038564e-02 2.038785e-02 1.326883e-02 
    19.5                4.010008e-03 4.418907e-03 4.156244e-03 4.248382e-03 1.716826e-02 1.242547e-05 4.316623e-03 5.175080e-03 5.177859e-03 2.043396e-02 2.044144e-02 1.322376e-02 
    20.5                3.909413e-03 4.333610e-03 4.075918e-03 4.172137e-03 1.697888e-02 1.115518e-05 4.198853e-03 4.986314e-03 4.988966e-03 2.012212e-02 2.012194e-02 1.295346e-02 
    21.5                3.931397e-03 4.238481e-03 4.045515e-03 4.115170e-03 1.711134e-02 9.953229e-06 4.153243e-03 4.842857e-03 4.845123e-03 2.015560e-02 2.015640e-02 1.282663e-02 
    22.5                3.882493e-03 4.282048e-03 4.045700e-03 4.136501e-03 1.739480e-02 8.859760e-06 4.159892e-03 4.717423e-03 4.719337e-03 2.037692e-02 2.036418e-02 1.283582e-02 
    23.5                3.685074e-03 4.113715e-03 3.821698e-03 3.920178e-03 1.647504e-02 8.100789e-06 3.931872e-03 4.416951e-03 4.419313e-03 1.926848e-02 1.929502e-02 1.220696e-02 
    24.5                3.616429e-03 3.842516e-03 3.705509e-03 3.756522e-03 1.580021e-02 7.561754e-06 3.781104e-03 4.154433e-03 4.156270e-03 1.845920e-02 1.846207e-02 1.171841e-02 
    25.5                3.507446e-03 3.752880e-03 3.613179e-03 3.669149e-03 1.544209e-02 7.021978e-06 3.675997e-03 3.927639e-03 3.929648e-03 1.800163e-02 1.799551e-02 1.142037e-02 
    26.5                3.434355e-03 3.656788e-03 3.518906e-03 3.569756e-03 1.487983e-02 6.349465e-06 3.589767e-03 3.719114e-03 3.720761e-03 1.735274e-02 1.735416e-02 1.113707e-02 
    27.5                3.288081e-03 3.616611e-03 3.406507e-03 3.481180e-03 1.429701e-02 5.139237e-06 3.477267e-03 3.510227e-03 3.511434e-03 1.666535e-02 1.667183e-02 1.082856e-02 
    28.5                3.192383e-03 3.449214e-03 3.286144e-03 3.346526e-03 1.368204e-02 4.286577e-06 3.336131e-03 3.247438e-03 3.249013e-03 1.593154e-02 1.593936e-02 1.042549e-02 
    29.5                2.979451e-03 3.305547e-03 3.109425e-03 3.183967e-03 1.295493e-02 3.688019e-06 3.163038e-03 2.943256e-03 2.944362e-03 1.506368e-02 1.506553e-02 9.878941e-03 
    30.5                2.872620e-03 3.091288e-03 2.937258e-03 2.988079e-03 1.235366e-02 2.975999e-06 2.977845e-03 2.725111e-03 2.725984e-03 1.430684e-02 1.432034e-02 9.337638e-03 
    31.5                2.871059e-03 2.968928e-03 2.910347e-03 2.933944e-03 1.197739e-02 2.462377e-06 2.931344e-03 2.560377e-03 2.561336e-03 1.388195e-02 1.387870e-02 9.180172e-03 
    32.5                2.773473e-03 2.907361e-03 2.781890e-03 2.813063e-03 1.124899e-02 2.207361e-06 2.821366e-03 2.349006e-03 2.349682e-03 1.308047e-02 1.310737e-02 8.857602e-03 
    33.5                2.807278e-03 2.859522e-03 2.770693e-03 2.781694e-03 1.087088e-02 1.887738e-06 2.806341e-03 2.170026e-03 2.170945e-03 1.269190e-02 1.273925e-02 8.810661e-03 
    34.5                2.774058e-03 2.939932e-03 2.798190e-03 2.837810e-03 1.094868e-02 1.415350e-06 2.842260e-03 2.084089e-03 2.084545e-03 1.277793e-02 1.281509e-02 8.916179e-03 
    35.5                2.693087e-03 2.794044e-03 2.703933e-03 2.726673e-03 1.008217e-02 1.079705e-06 2.724157e-03 1.945967e-03 1.946330e-03 1.187978e-02 1.190223e-02 8.573583e-03 
    36.5                2.694926e-03 2.696637e-03 2.739996e-03 2.740808e-03 9.835178e-03 6.833011e-07 2.718565e-03 1.816233e-03 1.816714e-03 1.166833e-02 1.162678e-02 8.537867e-03 
    37.5                2.642448e-03 2.928296e-03 2.783101e-03 2.848345e-03 9.938561e-03 4.266070e-07 2.784744e-03 1.758950e-03 1.759214e-03 1.184061e-02 1.180973e-02 8.800103e-03 
    38.5                2.726509e-03 3.026707e-03 2.813173e-03 2.886530e-03 9.710657e-03 4.385057e-07 2.856683e-03 1.688359e-03 1.688870e-03 1.168375e-02 1.170533e-02 8.996266e-03 
    39.5                2.806500e-03 3.080013e-03 2.901946e-03 2.964113e-03 9.631132e-03 4.221190e-07 2.946580e-03 1.638197e-03 1.638349e-03 1.170618e-02 1.171231e-02 9.228834e-03 
    40.5                2.931863e-03 2.900846e-03 2.959703e-03 2.953028e-03 9.445951e-03 3.538815e-07 2.920341e-03 1.570434e-03 1.570711e-03 1.156475e-02 1.151740e-02 9.223487e-03 
    41.5                3.164129e-03 3.000325e-03 3.153225e-03 3.117611e-03 9.476097e-03 4.029717e-07 3.101038e-03 1.551607e-03 1.552044e-03 1.181120e-02 1.174721e-02 9.760849e-03 
    42.5                3.205546e-03 3.230922e-03 3.205943e-03 3.213145e-03 9.227860e-03 5.355354e-07 3.221403e-03 1.544530e-03 1.544728e-03 1.170575e-02 1.172134e-02 1.009507e-02 
    43.5                3.278581e-03 3.206278e-03 3.205234e-03 3.184624e-03 8.790440e-03 5.073446e-07 3.189313e-03 1.497165e-03 1.497319e-03 1.133721e-02 1.139616e-02 1.010625e-02 
    44.5                3.602000e-03 3.410536e-03 3.495237e-03 3.448771e-03 9.156933e-03 4.311847e-07 3.492508e-03 1.543987e-03 1.544266e-03 1.199678e-02 1.203309e-02 1.096050e-02 
    45.5                3.562442e-03 3.794419e-03 3.565023e-03 3.618854e-03 9.193063e-03 3.974047e-07 3.617300e-03 1.546890e-03 1.547268e-03 1.217269e-02 1.229045e-02 1.140795e-02 
    46.5                3.661839e-03 3.704502e-03 3.617405e-03 3.630614e-03 8.941785e-03 5.040104e-07 3.651678e-03 1.512226e-03 1.512472e-03 1.202250e-02 1.212167e-02 1.147712e-02 
    47.5                3.863975e-03 3.780718e-03 3.841110e-03 3.819967e-03 8.869576e-03 6.912918e-07 3.821611e-03 1.533882e-03 1.534276e-03 1.229154e-02 1.228191e-02 1.202812e-02 
    48.5                4.155076e-03 4.097469e-03 4.050509e-03 4.037363e-03 8.828717e-03 1.129962e-06 4.098763e-03 1.581626e-03 1.582454e-03 1.258642e-02 1.269752e-02 1.283491e-02 
    49.5                4.682530e-03 4.314951e-03 4.476991e-03 4.389667e-03 9.118466e-03 1.081266e-06 4.447788e-03 1.640828e-03 1.641194e-03 1.337899e-02 1.347063e-02 1.403425e-02 
    50.5                5.293317e-03 4.601698e-03 5.066211e-03 4.903984e-03 9.449220e-03 1.200173e-06 4.957120e-03 1.724646e-03 1.724993e-03 1.445067e-02 1.440322e-02 1.559635e-02 
    51.5                5.869252e-03 5.267057e-03 5.716331e-03 5.576255e-03 9.750271e-03 1.768977e-06 5.647084e-03 1.808483e-03 1.809248e-03 1.571691e-02 1.560673e-02 1.762449e-02 
    52.5                5.883664e-03 5.863058e-03 6.001326e-03 5.999414e-03 9.547584e-03 3.520250e-06 5.983997e-03 1.856498e-03 1.857166e-03 1.616651e-02 1.598106e-02 1.866028e-02 
    53.5                5.732860e-03 6.241363e-03 6.014629e-03 6.134556e-03 9.112122e-03 3.767075e-06 6.066946e-03 1.873650e-03 1.874773e-03 1.601455e-02 1.587477e-02 1.894714e-02 
    54.5                5.632088e-03 6.230331e-03 5.874674e-03 6.014643e-03 8.617442e-03 3.222196e-06 5.991313e-03 1.854919e-03 1.855518e-03 1.546983e-02 1.544334e-02 1.864983e-02 
    55.5                5.728831e-03 6.094140e-03 5.765902e-03 5.849713e-03 8.218251e-03 2.170095e-06 5.846960e-03 1.827753e-03 1.828163e-03 1.498323e-02 1.514041e-02 1.840144e-02 
    56.5                5.561518e-03 5.850705e-03 5.674763e-03 5.740022e-03 7.806445e-03 1.888223e-06 5.739001e-03 1.785650e-03 1.786140e-03 1.454508e-02 1.453439e-02 1.792649e-02 
    57.5                5.048757e-03 5.597312e-03 5.298196e-03 5.426407e-03 7.078045e-03 2.384970e-06 5.355425e-03 1.696123e-03 1.696560e-03 1.349160e-02 1.343159e-02 1.678430e-02 
    58.5                4.727667e-03 5.296558e-03 4.944214e-03 5.079467e-03 6.397287e-03 2.888991e-06 5.027188e-03 1.570351e-03 1.570837e-03 1.246944e-02 1.246877e-02 1.574356e-02 
    59.5                4.555010e-03 5.018518e-03 4.697346e-03 4.805415e-03 5.894178e-03 2.427907e-06 4.796132e-03 1.441791e-03 1.442351e-03 1.170772e-02 1.176432e-02 1.497726e-02 
    60.5                4.172662e-03 4.778644e-03 4.386684e-03 4.527444e-03 5.327884e-03 1.605412e-06 4.483875e-03 1.288013e-03 1.288471e-03 1.085651e-02 1.088671e-02 1.403064e-02 
    61.5                3.669914e-03 4.370215e-03 3.919177e-03 4.080428e-03 4.556454e-03 1.781373e-06 4.059132e-03 1.128318e-03 1.128804e-03 9.611482e-03 9.642941e-03 1.260170e-02 
    62.5                3.093101e-03 3.878097e-03 3.365774e-03 3.549359e-03 3.771010e-03 2.025300e-06 3.474251e-03 9.636371e-04 9.638163e-04 8.212929e-03 8.251377e-03 1.090413e-02 
    63.5                2.438627e-03 3.205523e-03 2.765139e-03 2.944392e-03 2.974482e-03 1.597217e-06 2.845520e-03 7.922653e-04 7.927508e-04 6.693460e-03 6.641212e-03 8.911789e-03 
    64.5                1.984120e-03 2.637050e-03 2.224560e-03 2.375682e-03 2.352174e-03 1.257358e-06 2.306823e-03 6.279423e-04 6.281209e-04 5.368462e-03 5.386997e-03 7.244079e-03 
    65.5                1.533488e-03 2.056882e-03 1.770265e-03 1.891665e-03 1.771475e-03 1.579906e-06 1.826627e-03 4.744464e-04 4.747244e-04 4.216518e-03 4.156241e-03 5.696256e-03 
    66.5                1.115863e-03 1.629031e-03 1.335257e-03 1.455142e-03 1.286168e-03 1.843700e-06 1.394661e-03 3.405618e-04 3.408462e-04 3.181797e-03 3.139924e-03 4.347913e-03 
    67.5                7.223324e-04 1.184075e-03 9.179646e-04 1.025715e-03 8.441357e-04 1.374710e-06 9.661888e-04 2.217225e-04 2.219648e-04 2.189407e-03 2.156096e-03 3.023899e-03 
    68.5                4.136822e-04 8.029727e-04 5.662659e-04 6.563676e-04 4.955855e-04 1.017409e-06 6.114831e-04 1.277974e-04 1.279300e-04 1.360045e-03 1.354627e-03 1.915998e-03 
    69.5                1.872241e-04 4.909324e-04 3.027086e-04 3.733832e-04 2.490473e-04 9.769879e-07 3.387356e-04 6.245945e-05 6.260474e-05 7.416752e-04 7.419361e-04 1.062927e-03 
    70.5                5.851898e-05 2.455287e-04 1.220102e-04 1.651131e-04 9.460502e-05 8.649701e-07 1.483296e-04 2.384411e-05 2.398436e-05 3.112487e-04 3.254979e-04 4.642288e-04 
    71.5                1.050604e-05 8.641770e-05 3.288473e-05 5.050862e-05 2.345012e-05 4.432784e-07 4.283895e-05 6.113067e-06 6.198205e-06 8.926403e-05 1.012714e-04 1.416122e-04 
    72.5                4.616962e-07 1.629789e-05 4.307143e-06 8.006232e-06 2.624246e-06 1.286890e-07 6.993366e-06 8.798583e-07 9.113855e-07 1.296466e-05 1.709109e-05 2.284128e-05 
    73.5                1.909077e-11 1.411621e-06 1.815356e-07 5.157020e-07 8.149202e-08 1.039873e-08 4.057739e-07 3.991065e-08 4.237867e-08 7.137420e-07 1.416184e-06 1.658710e-06 
    74.5                0.000000e+00 0.000000e+00 0.000000e+00 0.000000e+00 0.000000e+00 0.000000e+00 0.000000e+00 0.000000e+00 0.000000e+00 0.000000e+00 0.000000e+00 0.000000e+00 
    75.5                0.000000e+00 0.000000e+00 0.000000e+00 0.000000e+00 0.000000e+00 0.000000e+00 0.000000e+00 0.000000e+00 0.000000e+00 0.000000e+00 0.000000e+00 0.000000e+00 
    76.5                0.000000e+00 0.000000e+00 0.000000e+00 0.000000e+00 0.000000e+00 0.000000e+00 0.000000e+00 0.000000e+00 0.000000e+00 0.000000e+00 0.000000e+00 0.000000e+00 
    77.5                0.000000e+00 0.000000e+00 0.000000e+00 0.000000e+00 0.000000e+00 0.000000e+00 0.000000e+00 0.000000e+00 0.000000e+00 0.000000e+00 0.000000e+00 0.000000e+00 
    78.5                0.000000e+00 0.000000e+00 0.000000e+00 0.000000e+00 0.000000e+00 0.000000e+00 0.000000e+00 0.000000e+00 0.000000e+00 0.000000e+00 0.000000e+00 0.000000e+00 
    79.5                0.000000e+00 0.000000e+00 0.000000e+00 0.000000e+00 0.000000e+00 0.000000e+00 0.000000e+00 0.000000e+00 0.000000e+00 0.000000e+00 0.000000e+00 0.000000e+00 


