# 80 rows of flux data
# 12 columns of flux data
# 
# total cross-sectional flux  2.177280e+00 /m^2/yr
#
#                             +x ram      -x wake      +y port -y starboard    +z zenith     -z nadir        Earth          Sun     anti-Sun      rot (x)      rot (y)      rot (z) 
# average speed (km/s)         23.82        24.65        24.64        17.35        23.87        23.50        24.44        24.65        24.66        23.58        24.12        24.10 
# total flux (#/m2/yr)  6.191597e-01 7.256374e-01 8.665758e-01 1.129531e-01 9.656254e-01 7.212196e-04 1.248725e+00 9.441262e-01 9.572776e-01 1.457626e+00 1.834093e+00 1.838166e+00 
# velocity (km/s)
     0.5                0.000000e+00 0.000000e+00 0.000000e+00 0.000000e+00 0.000000e+00 0.000000e+00 0.000000e+00 0.000000e+00 0.000000e+00 0.000000e+00 0.000000e+00 0.000000e+00 
     1.5                0.000000e+00 0.000000e+00 0.000000e+00 0.000000e+00 0.000000e+00 0.000000e+00 0.000000e+00 0.000000e+00 0.000000e+00 0.000000e+00 0.000000e+00 0.000000e+00 
     2.5                5.367802e-06 0.000000e+00 8.163967e-07 8.176228e-07 2.338148e-06 1.395478e-09 1.939770e-06 2.362347e-07 1.692704e-06 3.113662e-06 6.041978e-06 5.722317e-06 
     3.5                1.264469e-04 3.300146e-06 5.792400e-05 2.233936e-05 8.958392e-05 5.873887e-08 9.700765e-05 2.563561e-05 5.628007e-05 1.296836e-04 1.733861e-04 1.663150e-04 
     4.5                5.646513e-04 1.304438e-04 3.671462e-04 1.269903e-04 5.088365e-04 3.447829e-07 5.777510e-04 1.859709e-04 2.937435e-04 7.743930e-04 9.509199e-04 9.372835e-04 
     5.5                1.511774e-03 6.015735e-04 1.255925e-03 4.465747e-04 1.697858e-03 1.176915e-06 1.941957e-03 7.616465e-04 9.706371e-04 2.649173e-03 3.006810e-03 2.999476e-03 
     6.5                2.826814e-03 1.994408e-03 2.830293e-03 1.035927e-03 3.763832e-03 2.960069e-06 4.336328e-03 1.939581e-03 2.210307e-03 5.998775e-03 6.784697e-03 6.833837e-03 
     7.5                4.991666e-03 3.680835e-03 4.986303e-03 1.956187e-03 6.744211e-03 5.390657e-06 7.654962e-03 3.773832e-03 4.010520e-03 1.077299e-02 1.218311e-02 1.227772e-02 
     8.5                7.431279e-03 6.178295e-03 8.104218e-03 2.950764e-03 1.071779e-02 8.549056e-06 1.234164e-02 6.375429e-03 6.472860e-03 1.713203e-02 1.921544e-02 1.937924e-02 
     9.5                9.433763e-03 9.411418e-03 1.129234e-02 4.105297e-03 1.494664e-02 1.184621e-05 1.717808e-02 9.476962e-03 9.473727e-03 2.388102e-02 2.669728e-02 2.690881e-02 
    10.5                1.145425e-02 1.269000e-02 1.391637e-02 5.593769e-03 1.883585e-02 1.588019e-05 2.128456e-02 1.291262e-02 1.297794e-02 3.029570e-02 3.397257e-02 3.432317e-02 
    11.5                1.313944e-02 1.492221e-02 1.627113e-02 6.836473e-03 2.229478e-02 1.858808e-05 2.493966e-02 1.627485e-02 1.645860e-02 3.583445e-02 3.979237e-02 4.023282e-02 
    12.5                1.439039e-02 1.707636e-02 1.805211e-02 7.593704e-03 2.483668e-02 2.027450e-05 2.763715e-02 1.930380e-02 1.952360e-02 3.967227e-02 4.448491e-02 4.490070e-02 
    13.5                1.634173e-02 1.834747e-02 2.002704e-02 7.959362e-03 2.719821e-02 2.169131e-05 3.048688e-02 2.224521e-02 2.247059e-02 4.317513e-02 4.891187e-02 4.928802e-02 
    14.5                1.804829e-02 2.001186e-02 2.256342e-02 7.888541e-03 2.967191e-02 2.326077e-05 3.399129e-02 2.535353e-02 2.562096e-02 4.681387e-02 5.357340e-02 5.391888e-02 
    15.5                1.959999e-02 2.174168e-02 2.503428e-02 7.476204e-03 3.176254e-02 2.455429e-05 3.729909e-02 2.831000e-02 2.860681e-02 4.976711e-02 5.787657e-02 5.817509e-02 
    16.5                2.101150e-02 2.360764e-02 2.733543e-02 7.177368e-03 3.373766e-02 2.644283e-05 4.042559e-02 3.111340e-02 3.143223e-02 5.264054e-02 6.208159e-02 6.238917e-02 
    17.5                2.236670e-02 2.494573e-02 2.934239e-02 6.629286e-03 3.524568e-02 2.730665e-05 4.307254e-02 3.359450e-02 3.393517e-02 5.465888e-02 6.543933e-02 6.569252e-02 
    18.5                2.334679e-02 2.617178e-02 3.126177e-02 5.934777e-03 3.650830e-02 2.799045e-05 4.554744e-02 3.578990e-02 3.615228e-02 5.629872e-02 6.822721e-02 6.844441e-02 
    19.5                2.408198e-02 2.735372e-02 3.268219e-02 5.445553e-03 3.747228e-02 2.865043e-05 4.738796e-02 3.755078e-02 3.793562e-02 5.752816e-02 7.055311e-02 7.073853e-02 
    20.5                2.474927e-02 2.796216e-02 3.374583e-02 4.887953e-03 3.801710e-02 2.894946e-05 4.869430e-02 3.876067e-02 3.917054e-02 5.806663e-02 7.202554e-02 7.218374e-02 
    21.5                2.575884e-02 2.841710e-02 3.499032e-02 4.329664e-03 3.873446e-02 2.935978e-05 5.028722e-02 4.007760e-02 4.052337e-02 5.888075e-02 7.377041e-02 7.390692e-02 
    22.5                2.638522e-02 2.931965e-02 3.634777e-02 3.940869e-03 3.973835e-02 2.970515e-05 5.205905e-02 4.144312e-02 4.192703e-02 6.012410e-02 7.580585e-02 7.591703e-02 
    23.5                2.662479e-02 3.008872e-02 3.716722e-02 3.421839e-03 4.008081e-02 2.983212e-05 5.305738e-02 4.221125e-02 4.272654e-02 6.036464e-02 7.689702e-02 7.697987e-02 
    24.5                2.675013e-02 3.024489e-02 3.752057e-02 2.993114e-03 4.005071e-02 2.957164e-05 5.342911e-02 4.241733e-02 4.296416e-02 6.004186e-02 7.711263e-02 7.717119e-02 
    25.5                2.662488e-02 3.029105e-02 3.769549e-02 2.554301e-03 3.983481e-02 2.914419e-05 5.355146e-02 4.232991e-02 4.290399e-02 5.942438e-02 7.689167e-02 7.692907e-02 
    26.5                2.595044e-02 3.015073e-02 3.732234e-02 2.187009e-03 3.914170e-02 2.836346e-05 5.292127e-02 4.167397e-02 4.225890e-02 5.811959e-02 7.570387e-02 7.572222e-02 
    27.5                2.528619e-02 2.952105e-02 3.645469e-02 1.854130e-03 3.798343e-02 2.752041e-05 5.161046e-02 4.054960e-02 4.113859e-02 5.617323e-02 7.377597e-02 7.378145e-02 
    28.5                2.443112e-02 2.856497e-02 3.545212e-02 1.578325e-03 3.674496e-02 2.631268e-05 5.012773e-02 3.914046e-02 3.972666e-02 5.412360e-02 7.134886e-02 7.134441e-02 
    29.5                2.329347e-02 2.767252e-02 3.415154e-02 1.310681e-03 3.521420e-02 2.513122e-05 4.823399e-02 3.748282e-02 3.806200e-02 5.168115e-02 6.852723e-02 6.851523e-02 
    30.5                2.202540e-02 2.639880e-02 3.250432e-02 1.088525e-03 3.338052e-02 2.371823e-05 4.586801e-02 3.545168e-02 3.601303e-02 4.880985e-02 6.505505e-02 6.503748e-02 
    31.5                2.054338e-02 2.498829e-02 3.063014e-02 8.704889e-04 3.132365e-02 2.215657e-05 4.318497e-02 3.315537e-02 3.369285e-02 4.563416e-02 6.112551e-02 6.110345e-02 
    32.5                1.883735e-02 2.336857e-02 2.845131e-02 6.972312e-04 2.900174e-02 2.042264e-05 4.008953e-02 3.054225e-02 3.104786e-02 4.211081e-02 5.663660e-02 5.661319e-02 
    33.5                1.692014e-02 2.156552e-02 2.594756e-02 5.524353e-04 2.637918e-02 1.857177e-05 3.654518e-02 2.763893e-02 2.810275e-02 3.819734e-02 5.159695e-02 5.157429e-02 
    34.5                1.500294e-02 1.947259e-02 2.324810e-02 4.336716e-04 2.358428e-02 1.659413e-05 3.273359e-02 2.456934e-02 2.498664e-02 3.406399e-02 4.618808e-02 4.616696e-02 
    35.5                1.309415e-02 1.734554e-02 2.052185e-02 3.321319e-04 2.077746e-02 1.462107e-05 2.888721e-02 2.151247e-02 2.188277e-02 2.993366e-02 4.074841e-02 4.072915e-02 
    36.5                1.124285e-02 1.519262e-02 1.784421e-02 2.424593e-04 1.802855e-02 1.265549e-05 2.511282e-02 1.852441e-02 1.884525e-02 2.590771e-02 3.537624e-02 3.535928e-02 
    37.5                9.447293e-03 1.313337e-02 1.523881e-02 1.753117e-04 1.537177e-02 1.077827e-05 2.144390e-02 1.566984e-02 1.594442e-02 2.203860e-02 3.019665e-02 3.018163e-02 
    38.5                7.680657e-03 1.111357e-02 1.270043e-02 1.215122e-04 1.279211e-02 8.951221e-06 1.787098e-02 1.292377e-02 1.315013e-02 1.830183e-02 2.513264e-02 2.512004e-02 
    39.5                5.971251e-03 9.180045e-03 1.022188e-02 8.125921e-05 1.028264e-02 7.215934e-06 1.438380e-02 1.030149e-02 1.047988e-02 1.468495e-02 2.023912e-02 2.022915e-02 
    40.5                4.414271e-03 7.274420e-03 7.862366e-03 5.196919e-05 7.901086e-03 5.574121e-06 1.106471e-02 7.849844e-03 7.984017e-03 1.126542e-02 1.559209e-02 1.558465e-02 
    41.5                3.114525e-03 5.501867e-03 5.759946e-03 3.163137e-05 5.783614e-03 4.127008e-06 8.107129e-03 5.706767e-03 5.801434e-03 8.234526e-03 1.146485e-02 1.145955e-02 
    42.5                2.079389e-03 3.951478e-03 4.022474e-03 1.828833e-05 4.036251e-03 2.896060e-06 5.662803e-03 3.945818e-03 4.009961e-03 5.739560e-03 8.016597e-03 8.013049e-03 
    43.5                1.245724e-03 2.717463e-03 2.632584e-03 9.930355e-06 2.640116e-03 1.909671e-06 3.707066e-03 2.558823e-03 2.598590e-03 3.750462e-03 5.259510e-03 5.257342e-03 
    44.5                6.482138e-04 1.724130e-03 1.547573e-03 5.035418e-06 1.551344e-03 1.158838e-06 2.179897e-03 1.502302e-03 1.523038e-03 2.202179e-03 3.127605e-03 3.126443e-03 
    45.5                2.690746e-04 9.619081e-04 7.834002e-04 2.241123e-06 7.850098e-04 6.128696e-07 1.103899e-03 7.628048e-04 7.714744e-04 1.113762e-03 1.608627e-03 1.608113e-03 
    46.5                7.899208e-05 4.488562e-04 3.163349e-04 8.635962e-07 3.168879e-04 2.761055e-07 4.459236e-04 3.153586e-04 3.179480e-04 4.495255e-04 6.757984e-04 6.756301e-04 
    47.5                1.548132e-05 1.542946e-04 9.282102e-05 2.665055e-07 9.296597e-05 9.476668e-08 1.309089e-04 9.691181e-05 9.696734e-05 1.318978e-04 2.112177e-04 2.111785e-04 
    48.5                1.403903e-06 3.717543e-05 1.864713e-05 5.756746e-08 1.867196e-05 2.382953e-08 2.631577e-05 2.079108e-05 2.067419e-05 2.649941e-05 4.625735e-05 4.625176e-05 
    49.5                1.245193e-08 5.150025e-06 1.990585e-06 7.820598e-09 1.992893e-06 3.427771e-09 2.812600e-06 2.552897e-06 2.510892e-06 2.831473e-06 5.826318e-06 5.825977e-06 
    50.5                0.000000e+00 1.485065e-07 3.730767e-08 2.448583e-10 3.738872e-08 1.171019e-10 5.296122e-08 6.621932e-08 6.322247e-08 5.327446e-08 1.556799e-07 1.556589e-07 
    51.5                0.000000e+00 0.000000e+00 0.000000e+00 0.000000e+00 0.000000e+00 0.000000e+00 0.000000e+00 0.000000e+00 0.000000e+00 0.000000e+00 0.000000e+00 0.000000e+00 
    52.5                0.000000e+00 0.000000e+00 0.000000e+00 0.000000e+00 0.000000e+00 0.000000e+00 0.000000e+00 0.000000e+00 0.000000e+00 0.000000e+00 0.000000e+00 0.000000e+00 
    53.5                0.000000e+00 0.000000e+00 0.000000e+00 0.000000e+00 0.000000e+00 0.000000e+00 0.000000e+00 0.000000e+00 0.000000e+00 0.000000e+00 0.000000e+00 0.000000e+00 
    54.5                0.000000e+00 0.000000e+00 0.000000e+00 0.000000e+00 0.000000e+00 0.000000e+00 0.000000e+00 0.000000e+00 0.000000e+00 0.000000e+00 0.000000e+00 0.000000e+00 
    55.5                0.000000e+00 0.000000e+00 0.000000e+00 0.000000e+00 0.000000e+00 0.000000e+00 0.000000e+00 0.000000e+00 0.000000e+00 0.000000e+00 0.000000e+00 0.000000e+00 
    56.5                0.000000e+00 0.000000e+00 0.000000e+00 0.000000e+00 0.000000e+00 0.000000e+00 0.000000e+00 0.000000e+00 0.000000e+00 0.000000e+00 0.000000e+00 0.000000e+00 
    57.5                0.000000e+00 0.000000e+00 0.000000e+00 0.000000e+00 0.000000e+00 0.000000e+00 0.000000e+00 0.000000e+00 0.000000e+00 0.000000e+00 0.000000e+00 0.000000e+00 
    58.5                0.000000e+00 0.000000e+00 0.000000e+00 0.000000e+00 0.000000e+00 0.000000e+00 0.000000e+00 0.000000e+00 0.000000e+00 0.000000e+00 0.000000e+00 0.000000e+00 
    59.5                0.000000e+00 0.000000e+00 0.000000e+00 0.000000e+00 0.000000e+00 0.000000e+00 0.000000e+00 0.000000e+00 0.000000e+00 0.000000e+00 0.000000e+00 0.000000e+00 
    60.5                0.000000e+00 0.000000e+00 0.000000e+00 0.000000e+00 0.000000e+00 0.000000e+00 0.000000e+00 0.000000e+00 0.000000e+00 0.000000e+00 0.000000e+00 0.000000e+00 
    61.5                0.000000e+00 0.000000e+00 0.000000e+00 0.000000e+00 0.000000e+00 0.000000e+00 0.000000e+00 0.000000e+00 0.000000e+00 0.000000e+00 0.000000e+00 0.000000e+00 
    62.5                0.000000e+00 0.000000e+00 0.000000e+00 0.000000e+00 0.000000e+00 0.000000e+00 0.000000e+00 0.000000e+00 0.000000e+00 0.000000e+00 0.000000e+00 0.000000e+00 
    63.5                0.000000e+00 0.000000e+00 0.000000e+00 0.000000e+00 0.000000e+00 0.000000e+00 0.000000e+00 0.000000e+00 0.000000e+00 0.000000e+00 0.000000e+00 0.000000e+00 
    64.5                0.000000e+00 0.000000e+00 0.000000e+00 0.000000e+00 0.000000e+00 0.000000e+00 0.000000e+00 0.000000e+00 0.000000e+00 0.000000e+00 0.000000e+00 0.000000e+00 
    65.5                0.000000e+00 0.000000e+00 0.000000e+00 0.000000e+00 0.000000e+00 0.000000e+00 0.000000e+00 0.000000e+00 0.000000e+00 0.000000e+00 0.000000e+00 0.000000e+00 
    66.5                0.000000e+00 0.000000e+00 0.000000e+00 0.000000e+00 0.000000e+00 0.000000e+00 0.000000e+00 0.000000e+00 0.000000e+00 0.000000e+00 0.000000e+00 0.000000e+00 
    67.5                0.000000e+00 0.000000e+00 0.000000e+00 0.000000e+00 0.000000e+00 0.000000e+00 0.000000e+00 0.000000e+00 0.000000e+00 0.000000e+00 0.000000e+00 0.000000e+00 
    68.5                0.000000e+00 0.000000e+00 0.000000e+00 0.000000e+00 0.000000e+00 0.000000e+00 0.000000e+00 0.000000e+00 0.000000e+00 0.000000e+00 0.000000e+00 0.000000e+00 
    69.5                0.000000e+00 0.000000e+00 0.000000e+00 0.000000e+00 0.000000e+00 0.000000e+00 0.000000e+00 0.000000e+00 0.000000e+00 0.000000e+00 0.000000e+00 0.000000e+00 
    70.5                0.000000e+00 0.000000e+00 0.000000e+00 0.000000e+00 0.000000e+00 0.000000e+00 0.000000e+00 0.000000e+00 0.000000e+00 0.000000e+00 0.000000e+00 0.000000e+00 
    71.5                0.000000e+00 0.000000e+00 0.000000e+00 0.000000e+00 0.000000e+00 0.000000e+00 0.000000e+00 0.000000e+00 0.000000e+00 0.000000e+00 0.000000e+00 0.000000e+00 
    72.5                0.000000e+00 0.000000e+00 0.000000e+00 0.000000e+00 0.000000e+00 0.000000e+00 0.000000e+00 0.000000e+00 0.000000e+00 0.000000e+00 0.000000e+00 0.000000e+00 
    73.5                0.000000e+00 0.000000e+00 0.000000e+00 0.000000e+00 0.000000e+00 0.000000e+00 0.000000e+00 0.000000e+00 0.000000e+00 0.000000e+00 0.000000e+00 0.000000e+00 
    74.5                0.000000e+00 0.000000e+00 0.000000e+00 0.000000e+00 0.000000e+00 0.000000e+00 0.000000e+00 0.000000e+00 0.000000e+00 0.000000e+00 0.000000e+00 0.000000e+00 
    75.5                0.000000e+00 0.000000e+00 0.000000e+00 0.000000e+00 0.000000e+00 0.000000e+00 0.000000e+00 0.000000e+00 0.000000e+00 0.000000e+00 0.000000e+00 0.000000e+00 
    76.5                0.000000e+00 0.000000e+00 0.000000e+00 0.000000e+00 0.000000e+00 0.000000e+00 0.000000e+00 0.000000e+00 0.000000e+00 0.000000e+00 0.000000e+00 0.000000e+00 
    77.5                0.000000e+00 0.000000e+00 0.000000e+00 0.000000e+00 0.000000e+00 0.000000e+00 0.000000e+00 0.000000e+00 0.000000e+00 0.000000e+00 0.000000e+00 0.000000e+00 
    78.5                0.000000e+00 0.000000e+00 0.000000e+00 0.000000e+00 0.000000e+00 0.000000e+00 0.000000e+00 0.000000e+00 0.000000e+00 0.000000e+00 0.000000e+00 0.000000e+00 
    79.5                0.000000e+00 0.000000e+00 0.000000e+00 0.000000e+00 0.000000e+00 0.000000e+00 0.000000e+00 0.000000e+00 0.000000e+00 0.000000e+00 0.000000e+00 0.000000e+00 


