# 80 rows of flux data
# 12 columns of flux data
# 
# total cross-sectional flux  2.241359e+00 /m^2/yr
#
#                             +x ram      -x wake      +y port -y starboard    +z zenith     -z nadir        Earth          Sun     anti-Sun      rot (x)      rot (y)      rot (z) 
# average speed (km/s)         23.89        24.72        25.25        19.31        22.46        24.72        24.96        24.66        24.68        23.57        23.92        24.24 
# total flux (#/m2/yr)  6.386429e-01 7.489166e-01 1.032970e+00 2.441481e-01 6.101927e-01 1.405535e-03 1.137118e+00 9.753664e-01 9.855308e-01 1.498018e+00 1.636604e+00 2.095571e+00 
# velocity (km/s)
     0.5                0.000000e+00 0.000000e+00 0.000000e+00 0.000000e+00 0.000000e+00 0.000000e+00 0.000000e+00 0.000000e+00 0.000000e+00 0.000000e+00 0.000000e+00 0.000000e+00 
     1.5                0.000000e+00 0.000000e+00 0.000000e+00 0.000000e+00 0.000000e+00 0.000000e+00 0.000000e+00 0.000000e+00 0.000000e+00 0.000000e+00 0.000000e+00 0.000000e+00 
     2.5                5.552701e-06 0.000000e+00 1.058315e-06 1.162574e-06 2.374576e-06 2.232618e-10 1.518588e-06 5.260932e-07 1.200010e-06 3.502962e-06 6.135723e-06 6.180862e-06 
     3.5                1.420730e-04 4.744143e-06 7.425924e-05 4.956776e-05 7.629763e-05 9.957499e-08 8.887680e-05 3.932010e-05 5.608166e-05 1.572525e-04 1.773285e-04 2.127634e-04 
     4.5                5.959876e-04 1.585623e-04 4.319247e-04 2.446402e-04 4.157030e-04 5.340710e-07 5.096719e-04 2.344946e-04 2.938016e-04 8.608290e-04 9.319376e-04 1.123559e-03 
     5.5                1.558649e-03 6.697783e-04 1.390303e-03 8.147871e-04 1.386255e-03 1.764566e-06 1.647819e-03 8.711794e-04 9.813503e-04 2.837524e-03 2.866473e-03 3.482894e-03 
     6.5                2.885843e-03 2.075853e-03 2.992167e-03 1.802968e-03 3.092948e-03 4.029379e-06 3.568219e-03 2.104371e-03 2.232282e-03 6.225492e-03 6.383860e-03 7.664408e-03 
     7.5                5.084793e-03 3.771303e-03 5.233262e-03 3.212256e-03 5.602944e-03 7.034066e-06 6.271216e-03 3.979631e-03 4.075340e-03 1.109469e-02 1.145363e-02 1.358895e-02 
     8.5                7.534674e-03 6.317329e-03 8.425446e-03 5.039328e-03 8.769533e-03 1.138683e-05 1.005261e-02 6.597324e-03 6.619026e-03 1.756861e-02 1.789854e-02 2.144674e-02 
     9.5                9.537416e-03 9.616852e-03 1.164104e-02 7.108541e-03 1.222767e-02 1.614496e-05 1.390275e-02 9.745379e-03 9.740626e-03 2.450030e-02 2.484677e-02 2.977339e-02 
    10.5                1.159094e-02 1.285156e-02 1.426890e-02 9.028860e-03 1.573041e-02 2.012994e-05 1.716027e-02 1.322840e-02 1.330877e-02 3.083642e-02 3.180300e-02 3.749723e-02 
    11.5                1.330784e-02 1.509232e-02 1.683307e-02 1.048890e-02 1.868680e-02 2.328445e-05 2.023575e-02 1.665784e-02 1.679662e-02 3.634062e-02 3.728835e-02 4.377525e-02 
    12.5                1.458940e-02 1.728589e-02 1.888528e-02 1.140040e-02 2.068156e-02 2.644465e-05 2.260945e-02 1.975367e-02 1.989951e-02 4.028979e-02 4.168168e-02 4.883507e-02 
    13.5                1.660779e-02 1.861372e-02 2.118192e-02 1.211426e-02 2.227357e-02 3.017077e-05 2.516220e-02 2.278289e-02 2.292742e-02 4.397620e-02 4.574241e-02 5.381585e-02 
    14.5                1.837126e-02 2.035168e-02 2.410396e-02 1.271288e-02 2.355914e-02 3.449291e-05 2.829188e-02 2.600384e-02 2.617624e-02 4.783975e-02 4.971489e-02 5.933534e-02 
    15.5                2.001266e-02 2.216483e-02 2.706197e-02 1.299553e-02 2.430369e-02 3.937845e-05 3.135787e-02 2.911011e-02 2.930245e-02 5.107441e-02 5.327665e-02 6.460039e-02 
    16.5                2.149568e-02 2.411327e-02 2.995961e-02 1.309624e-02 2.503000e-02 4.377926e-05 3.436848e-02 3.201282e-02 3.222651e-02 5.406253e-02 5.682561e-02 6.963959e-02 
    17.5                2.291463e-02 2.553206e-02 3.254743e-02 1.297003e-02 2.528934e-02 4.760798e-05 3.698566e-02 3.462317e-02 3.485434e-02 5.627023e-02 5.949802e-02 7.380990e-02 
    18.5                2.396132e-02 2.684318e-02 3.504928e-02 1.271261e-02 2.527133e-02 5.148580e-05 3.946581e-02 3.694854e-02 3.719193e-02 5.809027e-02 6.159567e-02 7.743449e-02 
    19.5                2.474601e-02 2.809593e-02 3.697989e-02 1.241571e-02 2.526629e-02 5.434860e-05 4.137819e-02 3.879495e-02 3.905102e-02 5.941123e-02 6.343652e-02 8.032323e-02 
    20.5                2.548802e-02 2.875116e-02 3.862348e-02 1.185607e-02 2.492504e-02 5.684517e-05 4.293151e-02 4.008791e-02 4.036548e-02 6.003461e-02 6.449053e-02 8.227944e-02 
    21.5                2.654888e-02 2.926883e-02 4.054748e-02 1.126390e-02 2.466695e-02 5.907806e-05 4.479509e-02 4.147276e-02 4.178161e-02 6.090289e-02 6.573548e-02 8.457279e-02 
    22.5                2.723480e-02 3.024196e-02 4.253397e-02 1.087302e-02 2.471454e-02 6.171024e-05 4.675724e-02 4.292402e-02 4.326229e-02 6.223604e-02 6.731601e-02 8.713881e-02 
    23.5                2.751986e-02 3.107520e-02 4.393020e-02 1.024306e-02 2.428689e-02 6.365450e-05 4.805915e-02 4.375331e-02 4.411948e-02 6.253064e-02 6.806507e-02 8.862373e-02 
    24.5                2.769504e-02 3.127262e-02 4.486000e-02 9.492471e-03 2.371708e-02 6.481379e-05 4.886164e-02 4.399951e-02 4.439638e-02 6.223392e-02 6.808024e-02 8.906540e-02 
    25.5                2.760835e-02 3.136467e-02 4.562525e-02 8.584808e-03 2.303096e-02 6.508076e-05 4.947945e-02 4.391762e-02 4.434746e-02 6.156659e-02 6.770368e-02 8.896675e-02 
    26.5                2.692575e-02 3.125467e-02 4.566191e-02 7.653215e-03 2.217796e-02 6.388774e-05 4.934227e-02 4.322088e-02 4.367254e-02 6.014644e-02 6.649352e-02 8.765382e-02 
    27.5                2.626677e-02 3.063015e-02 4.503744e-02 6.729822e-03 2.114326e-02 6.227356e-05 4.851759e-02 4.204184e-02 4.250937e-02 5.805765e-02 6.473518e-02 8.544418e-02 
    28.5                2.539009e-02 2.966711e-02 4.421861e-02 5.861146e-03 2.012278e-02 5.989951e-05 4.750466e-02 4.056296e-02 4.104075e-02 5.586890e-02 6.246700e-02 8.268196e-02 
    29.5                2.422907e-02 2.876124e-02 4.294464e-02 5.055562e-03 1.898680e-02 5.738407e-05 4.602407e-02 3.882942e-02 3.931322e-02 5.327668e-02 5.992551e-02 7.943530e-02 
    30.5                2.292515e-02 2.745600e-02 4.124428e-02 4.219288e-03 1.774333e-02 5.405221e-05 4.410050e-02 3.670054e-02 3.718339e-02 5.022911e-02 5.681511e-02 7.540756e-02 
    31.5                2.138905e-02 2.600494e-02 3.917256e-02 3.434970e-03 1.642413e-02 5.015821e-05 4.179941e-02 3.429131e-02 3.476468e-02 4.685595e-02 5.331003e-02 7.083202e-02 
    32.5                1.961305e-02 2.433021e-02 3.664214e-02 2.741822e-03 1.503303e-02 4.580113e-05 3.903446e-02 3.155586e-02 3.201339e-02 4.313827e-02 4.932797e-02 6.560154e-02 
    33.5                1.761482e-02 2.246296e-02 3.359728e-02 2.167683e-03 1.354628e-02 4.122604e-05 3.574572e-02 2.853158e-02 2.895789e-02 3.904462e-02 4.490590e-02 5.973002e-02 
    34.5                1.561669e-02 2.028978e-02 3.024348e-02 1.680037e-03 1.201518e-02 3.648551e-05 3.214498e-02 2.534224e-02 2.573240e-02 3.474959e-02 4.017153e-02 5.344090e-02 
    35.5                1.362742e-02 1.807465e-02 2.680721e-02 1.270203e-03 1.050653e-02 3.181504e-05 2.846681e-02 2.217091e-02 2.252231e-02 3.047511e-02 3.541455e-02 4.711930e-02 
    36.5                1.169570e-02 1.583375e-02 2.339748e-02 9.238002e-04 9.049957e-03 2.725407e-05 2.482682e-02 1.907533e-02 1.938387e-02 2.632074e-02 3.071418e-02 4.088867e-02 
    37.5                9.824233e-03 1.368841e-02 2.004391e-02 6.594745e-04 7.669269e-03 2.301508e-05 2.125565e-02 1.612476e-02 1.639182e-02 2.234862e-02 2.620055e-02 3.488492e-02 
    38.5                7.982396e-03 1.158534e-02 1.674665e-02 4.568223e-04 6.347832e-03 1.897148e-05 1.775151e-02 1.329087e-02 1.351323e-02 1.852775e-02 2.178709e-02 2.902699e-02 
    39.5                6.201921e-03 9.571252e-03 1.350415e-02 3.081398e-04 5.079728e-03 1.520313e-05 1.431092e-02 1.058988e-02 1.076606e-02 1.484561e-02 1.754188e-02 2.336570e-02 
    40.5                4.581840e-03 7.586820e-03 1.040321e-02 1.977088e-04 3.888576e-03 1.169235e-05 1.102327e-02 8.067480e-03 8.200861e-03 1.137405e-02 1.351747e-02 1.799345e-02 
    41.5                3.230944e-03 5.740030e-03 7.630794e-03 1.213251e-04 2.837672e-03 8.620895e-06 8.085342e-03 5.864431e-03 5.958927e-03 8.304970e-03 9.949868e-03 1.322279e-02 
    42.5                2.155197e-03 4.123925e-03 5.333934e-03 7.110701e-05 1.975262e-03 6.028163e-06 5.652133e-03 4.054335e-03 4.118586e-03 5.783046e-03 6.958684e-03 9.243584e-03 
    43.5                1.289551e-03 2.837094e-03 3.493251e-03 3.934535e-05 1.289301e-03 3.968067e-06 3.702304e-03 2.629185e-03 2.669058e-03 3.775697e-03 4.568726e-03 6.062451e-03 
    44.5                6.699366e-04 1.801713e-03 2.054521e-03 2.029430e-05 7.565091e-04 2.406065e-06 2.178148e-03 1.544426e-03 1.565317e-03 2.215853e-03 2.728006e-03 3.600751e-03 
    45.5                2.773373e-04 1.006150e-03 1.040426e-03 9.241955e-06 3.823697e-04 1.271220e-06 1.103455e-03 7.848009e-04 7.935661e-04 1.120331e-03 1.410988e-03 1.848983e-03 
    46.5                8.122178e-05 4.702238e-04 4.202583e-04 3.641486e-06 1.542685e-04 5.699398e-07 4.459277e-04 3.251228e-04 3.277765e-04 4.522786e-04 6.009152e-04 7.738488e-04 
    47.5                1.583455e-05 1.621496e-04 1.233635e-04 1.140657e-06 4.526411e-05 1.972747e-07 1.309760e-04 1.002620e-04 1.003783e-04 1.328237e-04 1.916665e-04 2.406364e-04 
    48.5                1.415410e-06 3.917021e-05 2.479325e-05 2.514826e-07 9.091551e-06 4.828564e-08 2.634291e-05 2.160348e-05 2.149532e-05 2.671605e-05 4.305109e-05 5.232228e-05 
    49.5                1.245115e-08 5.454645e-06 2.650313e-06 3.519609e-08 9.724188e-07 7.189586e-09 2.820584e-06 2.676376e-06 2.634772e-06 2.865808e-06 5.662691e-06 6.516919e-06 
    50.5                0.000000e+00 1.579627e-07 4.978141e-08 1.132747e-09 1.835695e-08 2.294744e-10 5.325152e-08 6.971520e-08 6.739113e-08 5.441294e-08 1.597740e-07 1.702305e-07 
    51.5                0.000000e+00 0.000000e+00 0.000000e+00 0.000000e+00 0.000000e+00 0.000000e+00 0.000000e+00 0.000000e+00 0.000000e+00 0.000000e+00 0.000000e+00 0.000000e+00 
    52.5                0.000000e+00 0.000000e+00 0.000000e+00 0.000000e+00 0.000000e+00 0.000000e+00 0.000000e+00 0.000000e+00 0.000000e+00 0.000000e+00 0.000000e+00 0.000000e+00 
    53.5                0.000000e+00 0.000000e+00 0.000000e+00 0.000000e+00 0.000000e+00 0.000000e+00 0.000000e+00 0.000000e+00 0.000000e+00 0.000000e+00 0.000000e+00 0.000000e+00 
    54.5                0.000000e+00 0.000000e+00 0.000000e+00 0.000000e+00 0.000000e+00 0.000000e+00 0.000000e+00 0.000000e+00 0.000000e+00 0.000000e+00 0.000000e+00 0.000000e+00 
    55.5                0.000000e+00 0.000000e+00 0.000000e+00 0.000000e+00 0.000000e+00 0.000000e+00 0.000000e+00 0.000000e+00 0.000000e+00 0.000000e+00 0.000000e+00 0.000000e+00 
    56.5                0.000000e+00 0.000000e+00 0.000000e+00 0.000000e+00 0.000000e+00 0.000000e+00 0.000000e+00 0.000000e+00 0.000000e+00 0.000000e+00 0.000000e+00 0.000000e+00 
    57.5                0.000000e+00 0.000000e+00 0.000000e+00 0.000000e+00 0.000000e+00 0.000000e+00 0.000000e+00 0.000000e+00 0.000000e+00 0.000000e+00 0.000000e+00 0.000000e+00 
    58.5                0.000000e+00 0.000000e+00 0.000000e+00 0.000000e+00 0.000000e+00 0.000000e+00 0.000000e+00 0.000000e+00 0.000000e+00 0.000000e+00 0.000000e+00 0.000000e+00 
    59.5                0.000000e+00 0.000000e+00 0.000000e+00 0.000000e+00 0.000000e+00 0.000000e+00 0.000000e+00 0.000000e+00 0.000000e+00 0.000000e+00 0.000000e+00 0.000000e+00 
    60.5                0.000000e+00 0.000000e+00 0.000000e+00 0.000000e+00 0.000000e+00 0.000000e+00 0.000000e+00 0.000000e+00 0.000000e+00 0.000000e+00 0.000000e+00 0.000000e+00 
    61.5                0.000000e+00 0.000000e+00 0.000000e+00 0.000000e+00 0.000000e+00 0.000000e+00 0.000000e+00 0.000000e+00 0.000000e+00 0.000000e+00 0.000000e+00 0.000000e+00 
    62.5                0.000000e+00 0.000000e+00 0.000000e+00 0.000000e+00 0.000000e+00 0.000000e+00 0.000000e+00 0.000000e+00 0.000000e+00 0.000000e+00 0.000000e+00 0.000000e+00 
    63.5                0.000000e+00 0.000000e+00 0.000000e+00 0.000000e+00 0.000000e+00 0.000000e+00 0.000000e+00 0.000000e+00 0.000000e+00 0.000000e+00 0.000000e+00 0.000000e+00 
    64.5                0.000000e+00 0.000000e+00 0.000000e+00 0.000000e+00 0.000000e+00 0.000000e+00 0.000000e+00 0.000000e+00 0.000000e+00 0.000000e+00 0.000000e+00 0.000000e+00 
    65.5                0.000000e+00 0.000000e+00 0.000000e+00 0.000000e+00 0.000000e+00 0.000000e+00 0.000000e+00 0.000000e+00 0.000000e+00 0.000000e+00 0.000000e+00 0.000000e+00 
    66.5                0.000000e+00 0.000000e+00 0.000000e+00 0.000000e+00 0.000000e+00 0.000000e+00 0.000000e+00 0.000000e+00 0.000000e+00 0.000000e+00 0.000000e+00 0.000000e+00 
    67.5                0.000000e+00 0.000000e+00 0.000000e+00 0.000000e+00 0.000000e+00 0.000000e+00 0.000000e+00 0.000000e+00 0.000000e+00 0.000000e+00 0.000000e+00 0.000000e+00 
    68.5                0.000000e+00 0.000000e+00 0.000000e+00 0.000000e+00 0.000000e+00 0.000000e+00 0.000000e+00 0.000000e+00 0.000000e+00 0.000000e+00 0.000000e+00 0.000000e+00 
    69.5                0.000000e+00 0.000000e+00 0.000000e+00 0.000000e+00 0.000000e+00 0.000000e+00 0.000000e+00 0.000000e+00 0.000000e+00 0.000000e+00 0.000000e+00 0.000000e+00 
    70.5                0.000000e+00 0.000000e+00 0.000000e+00 0.000000e+00 0.000000e+00 0.000000e+00 0.000000e+00 0.000000e+00 0.000000e+00 0.000000e+00 0.000000e+00 0.000000e+00 
    71.5                0.000000e+00 0.000000e+00 0.000000e+00 0.000000e+00 0.000000e+00 0.000000e+00 0.000000e+00 0.000000e+00 0.000000e+00 0.000000e+00 0.000000e+00 0.000000e+00 
    72.5                0.000000e+00 0.000000e+00 0.000000e+00 0.000000e+00 0.000000e+00 0.000000e+00 0.000000e+00 0.000000e+00 0.000000e+00 0.000000e+00 0.000000e+00 0.000000e+00 
    73.5                0.000000e+00 0.000000e+00 0.000000e+00 0.000000e+00 0.000000e+00 0.000000e+00 0.000000e+00 0.000000e+00 0.000000e+00 0.000000e+00 0.000000e+00 0.000000e+00 
    74.5                0.000000e+00 0.000000e+00 0.000000e+00 0.000000e+00 0.000000e+00 0.000000e+00 0.000000e+00 0.000000e+00 0.000000e+00 0.000000e+00 0.000000e+00 0.000000e+00 
    75.5                0.000000e+00 0.000000e+00 0.000000e+00 0.000000e+00 0.000000e+00 0.000000e+00 0.000000e+00 0.000000e+00 0.000000e+00 0.000000e+00 0.000000e+00 0.000000e+00 
    76.5                0.000000e+00 0.000000e+00 0.000000e+00 0.000000e+00 0.000000e+00 0.000000e+00 0.000000e+00 0.000000e+00 0.000000e+00 0.000000e+00 0.000000e+00 0.000000e+00 
    77.5                0.000000e+00 0.000000e+00 0.000000e+00 0.000000e+00 0.000000e+00 0.000000e+00 0.000000e+00 0.000000e+00 0.000000e+00 0.000000e+00 0.000000e+00 0.000000e+00 
    78.5                0.000000e+00 0.000000e+00 0.000000e+00 0.000000e+00 0.000000e+00 0.000000e+00 0.000000e+00 0.000000e+00 0.000000e+00 0.000000e+00 0.000000e+00 0.000000e+00 
    79.5                0.000000e+00 0.000000e+00 0.000000e+00 0.000000e+00 0.000000e+00 0.000000e+00 0.000000e+00 0.000000e+00 0.000000e+00 0.000000e+00 0.000000e+00 0.000000e+00 


