# 80 rows of flux data
# 12 columns of flux data
# 
# total cross-sectional flux  1.034795e+00 /m^2/yr
#
#                             +x ram      -x wake      +y port -y starboard    +z zenith     -z nadir        Earth          Sun     anti-Sun      rot (x)      rot (y)      rot (z) 
# average speed (km/s)         36.95        38.24        35.68        39.77        31.63        44.87        37.89        28.00        27.95        33.97        33.98        37.38 
# total flux (#/m2/yr)  2.549241e-01 2.139025e-01 2.994096e-01 1.791327e-01 6.165654e-01 1.796779e-04 2.134358e-01 1.676620e-01 1.672096e-01 8.580115e-01 8.441018e-01 7.439491e-01 
# velocity (km/s)
     0.5                0.000000e+00 0.000000e+00 0.000000e+00 0.000000e+00 0.000000e+00 0.000000e+00 0.000000e+00 0.000000e+00 0.000000e+00 0.000000e+00 0.000000e+00 0.000000e+00 
     1.5                0.000000e+00 0.000000e+00 0.000000e+00 0.000000e+00 0.000000e+00 0.000000e+00 0.000000e+00 0.000000e+00 0.000000e+00 0.000000e+00 0.000000e+00 0.000000e+00 
     2.5                3.220007e-05 1.193036e-04 9.067213e-05 8.730020e-05 1.552471e-04 6.825939e-08 7.036284e-05 8.395334e-05 8.405679e-05 2.610516e-04 2.415076e-04 2.591605e-04 
     3.5                3.658005e-04 4.738723e-04 4.280909e-04 4.630879e-04 7.529042e-04 4.793582e-07 3.338229e-04 4.474164e-04 4.381881e-04 1.289811e-03 1.252914e-03 1.359337e-03 
     4.5                9.574306e-04 8.442700e-04 8.964128e-04 9.341045e-04 1.640388e-03 1.049887e-06 6.893565e-04 9.793689e-04 9.686952e-04 2.725936e-03 2.708004e-03 2.853148e-03 
     5.5                1.613996e-03 1.250462e-03 1.434055e-03 1.412607e-03 2.745265e-03 1.680109e-06 1.081564e-03 1.606831e-03 1.598043e-03 4.393756e-03 4.405944e-03 4.486303e-03 
     6.5                2.272260e-03 1.615702e-03 2.036070e-03 1.833640e-03 4.100451e-03 2.160036e-06 1.490653e-03 2.234919e-03 2.231775e-03 6.267919e-03 6.274499e-03 6.093572e-03 
     7.5                2.829172e-03 1.977543e-03 2.640111e-03 2.160009e-03 5.552241e-03 2.510771e-06 1.884825e-03 2.809606e-03 2.812775e-03 8.148500e-03 8.143776e-03 7.547468e-03 
     8.5                3.339461e-03 2.313639e-03 3.208757e-03 2.450338e-03 6.982429e-03 2.755415e-06 2.237261e-03 3.346485e-03 3.352532e-03 9.957676e-03 9.936940e-03 8.885665e-03 
     9.5                3.759174e-03 2.568671e-03 3.741216e-03 2.666070e-03 8.361999e-03 2.959529e-06 2.560680e-03 3.825404e-03 3.828581e-03 1.164853e-02 1.157147e-02 1.000264e-02 
    10.5                4.088294e-03 2.869489e-03 4.244130e-03 2.814420e-03 9.724335e-03 3.044609e-06 2.850518e-03 4.274948e-03 4.274461e-03 1.324372e-02 1.315464e-02 1.100853e-02 
    11.5                4.453375e-03 3.092731e-03 4.797579e-03 2.951648e-03 1.132899e-02 3.047189e-06 3.143249e-03 4.730212e-03 4.727714e-03 1.507792e-02 1.491743e-02 1.201152e-02 
    12.5                4.716701e-03 3.270535e-03 5.207894e-03 3.026200e-03 1.254784e-02 3.032779e-06 3.363842e-03 5.051314e-03 5.047188e-03 1.642622e-02 1.624183e-02 1.274101e-02 
    13.5                4.884504e-03 3.304200e-03 5.486895e-03 3.011414e-03 1.361384e-02 2.954196e-06 3.448290e-03 5.186509e-03 5.180890e-03 1.751458e-02 1.730424e-02 1.310583e-02 
    14.5                4.789654e-03 3.428709e-03 5.646458e-03 2.961944e-03 1.420702e-02 2.890426e-06 3.500377e-03 5.242901e-03 5.235342e-03 1.809282e-02 1.784030e-02 1.321470e-02 
    15.5                4.943713e-03 3.487369e-03 5.971310e-03 2.933896e-03 1.534174e-02 2.731287e-06 3.635704e-03 5.352902e-03 5.346097e-03 1.924908e-02 1.894763e-02 1.361479e-02 
    16.5                4.900855e-03 3.537085e-03 6.056936e-03 2.874427e-03 1.563860e-02 2.672378e-06 3.663680e-03 5.369986e-03 5.364098e-03 1.951382e-02 1.919404e-02 1.363986e-02 
    17.5                4.913437e-03 3.550579e-03 6.180077e-03 2.832749e-03 1.608859e-02 2.533614e-06 3.707246e-03 5.335038e-03 5.328749e-03 1.993395e-02 1.958551e-02 1.372448e-02 
    18.5                4.881590e-03 3.610332e-03 6.296326e-03 2.770601e-03 1.656982e-02 2.383042e-06 3.745031e-03 5.294058e-03 5.287513e-03 2.036498e-02 2.000167e-02 1.378868e-02 
    19.5                4.837929e-03 3.591058e-03 6.331802e-03 2.708566e-03 1.669197e-02 2.141792e-06 3.771555e-03 5.176770e-03 5.170074e-03 2.042873e-02 2.001819e-02 1.371746e-02 
    20.5                4.761902e-03 3.536363e-03 6.234296e-03 2.583683e-03 1.649739e-02 1.973641e-06 3.708157e-03 4.989773e-03 4.983936e-03 2.008856e-02 1.972908e-02 1.343917e-02 
    21.5                4.613110e-03 3.583979e-03 6.266066e-03 2.520189e-03 1.661502e-02 1.863022e-06 3.713930e-03 4.851137e-03 4.845566e-03 2.015007e-02 1.973819e-02 1.333519e-02 
    22.5                4.675564e-03 3.509145e-03 6.348048e-03 2.469766e-03 1.687933e-02 1.738497e-06 3.761021e-03 4.727811e-03 4.722956e-03 2.037559e-02 1.993310e-02 1.335273e-02 
    23.5                4.456362e-03 3.367762e-03 6.008450e-03 2.311688e-03 1.598575e-02 1.560406e-06 3.566228e-03 4.425490e-03 4.421460e-03 1.926578e-02 1.888562e-02 1.267506e-02 
    24.5                4.200275e-03 3.286086e-03 5.772943e-03 2.202562e-03 1.532730e-02 1.381234e-06 3.444781e-03 4.159160e-03 4.154636e-03 1.845000e-02 1.806279e-02 1.213742e-02 
    25.5                4.106921e-03 3.199633e-03 5.636269e-03 2.111531e-03 1.497499e-02 1.273979e-06 3.369029e-03 3.932737e-03 3.928703e-03 1.798481e-02 1.761006e-02 1.181690e-02 
    26.5                3.931819e-03 3.171310e-03 5.479773e-03 2.052293e-03 1.442575e-02 1.161651e-06 3.313690e-03 3.724025e-03 3.720182e-03 1.735218e-02 1.696726e-02 1.148853e-02 
    27.5                3.866204e-03 3.043901e-03 5.311311e-03 1.970488e-03 1.385264e-02 1.047547e-06 3.250047e-03 3.516939e-03 3.513821e-03 1.666945e-02 1.630053e-02 1.114106e-02 
    28.5                3.687930e-03 2.975649e-03 5.108795e-03 1.873019e-03 1.325083e-02 8.933940e-07 3.145687e-03 3.254132e-03 3.251781e-03 1.593076e-02 1.558827e-02 1.071179e-02 
    29.5                3.547689e-03 2.760501e-03 4.845984e-03 1.760692e-03 1.254420e-02 7.534715e-07 2.995445e-03 2.948667e-03 2.946288e-03 1.506296e-02 1.472874e-02 1.013652e-02 
    30.5                3.285996e-03 2.688742e-03 4.605025e-03 1.628261e-03 1.195782e-02 6.334039e-07 2.840306e-03 2.730095e-03 2.728010e-03 1.430734e-02 1.399560e-02 9.581348e-03 
    31.5                3.175460e-03 2.679907e-03 4.513559e-03 1.596536e-03 1.158884e-02 5.510817e-07 2.818882e-03 2.564326e-03 2.562887e-03 1.387965e-02 1.356601e-02 9.392492e-03 
    32.5                3.088094e-03 2.573566e-03 4.296844e-03 1.553572e-03 1.088428e-02 4.613330e-07 2.716978e-03 2.352742e-03 2.350755e-03 1.309037e-02 1.280170e-02 9.036617e-03 
    33.5                2.997914e-03 2.630508e-03 4.221496e-03 1.567028e-03 1.051677e-02 4.196151e-07 2.710878e-03 2.174195e-03 2.172314e-03 1.271477e-02 1.243520e-02 8.961088e-03 
    34.5                3.052859e-03 2.631933e-03 4.284694e-03 1.572659e-03 1.058711e-02 3.772001e-07 2.772170e-03 2.088426e-03 2.087262e-03 1.279976e-02 1.251043e-02 9.060328e-03 
    35.5                2.937493e-03 2.538629e-03 4.053670e-03 1.536548e-03 9.746348e-03 3.198823e-07 2.671941e-03 1.951130e-03 1.950406e-03 1.189414e-02 1.163352e-02 8.687007e-03 
    36.5                2.842265e-03 2.591769e-03 4.015412e-03 1.549634e-03 9.505609e-03 2.667777e-07 2.677001e-03 1.821783e-03 1.821151e-03 1.166093e-02 1.138825e-02 8.636777e-03 
    37.5                2.962506e-03 2.667607e-03 4.100798e-03 1.588708e-03 9.603317e-03 2.117719e-07 2.754683e-03 1.763556e-03 1.763171e-03 1.181620e-02 1.158709e-02 8.891140e-03 
    38.5                2.877614e-03 2.864070e-03 4.135749e-03 1.669708e-03 9.382449e-03 1.626953e-07 2.832287e-03 1.691696e-03 1.691581e-03 1.169984e-02 1.145131e-02 9.063497e-03 
    39.5                3.101855e-03 2.757199e-03 4.205414e-03 1.754369e-03 9.303363e-03 1.322526e-07 2.923940e-03 1.640660e-03 1.640289e-03 1.172548e-02 1.145437e-02 9.277404e-03 
    40.5                3.048895e-03 2.842688e-03 4.153225e-03 1.749684e-03 9.125424e-03 1.326965e-07 2.900279e-03 1.573162e-03 1.572791e-03 1.152824e-02 1.132416e-02 9.265516e-03 
    41.5                3.083162e-03 3.146052e-03 4.314398e-03 1.935467e-03 9.155530e-03 3.046177e-07 3.070810e-03 1.556179e-03 1.555225e-03 1.179303e-02 1.156358e-02 9.797280e-03 
    42.5                3.363786e-03 3.054334e-03 4.372269e-03 2.101527e-03 8.918673e-03 5.081633e-07 3.176091e-03 1.550625e-03 1.548533e-03 1.175857e-02 1.150572e-02 1.012434e-02 
    43.5                3.270649e-03 3.229083e-03 4.268219e-03 2.120546e-03 8.498108e-03 4.579013e-07 3.135619e-03 1.503006e-03 1.500586e-03 1.136117e-02 1.122443e-02 1.011956e-02 
    44.5                3.422953e-03 3.545648e-03 4.617273e-03 2.345806e-03 8.850428e-03 2.911287e-07 3.449684e-03 1.548091e-03 1.546295e-03 1.204266e-02 1.182062e-02 1.094294e-02 
    45.5                3.771718e-03 3.529147e-03 4.759662e-03 2.434273e-03 8.880810e-03 3.050393e-07 3.595401e-03 1.550400e-03 1.549807e-03 1.222326e-02 1.207618e-02 1.138107e-02 
    46.5                3.691426e-03 3.629624e-03 4.721266e-03 2.548519e-03 8.644977e-03 6.353931e-07 3.598580e-03 1.517977e-03 1.515415e-03 1.210481e-02 1.192294e-02 1.146034e-02 
    47.5                3.845441e-03 3.873543e-03 4.843356e-03 2.756831e-03 8.579232e-03 1.071480e-06 3.739041e-03 1.544374e-03 1.540199e-03 1.232915e-02 1.219401e-02 1.203153e-02 
    48.5                3.939041e-03 4.252775e-03 5.068378e-03 3.066954e-03 8.547009e-03 1.257921e-06 3.984056e-03 1.595048e-03 1.590259e-03 1.273161e-02 1.253560e-02 1.282342e-02 
    49.5                4.369415e-03 4.668498e-03 5.447563e-03 3.379282e-03 8.823729e-03 1.519855e-06 4.341187e-03 1.655573e-03 1.650323e-03 1.347759e-02 1.340188e-02 1.402538e-02 
    50.5                4.650809e-03 5.359445e-03 5.968376e-03 3.867955e-03 9.142889e-03 1.902092e-06 4.840073e-03 1.741707e-03 1.735521e-03 1.451928e-02 1.441715e-02 1.558534e-02 
    51.5                5.327380e-03 5.929186e-03 6.594353e-03 4.670297e-03 9.444558e-03 3.607493e-06 5.457066e-03 1.837526e-03 1.827086e-03 1.594012e-02 1.567249e-02 1.769365e-02 
    52.5                6.022744e-03 5.956239e-03 6.785257e-03 5.196031e-03 9.267785e-03 5.292046e-06 5.695407e-03 1.897467e-03 1.882368e-03 1.644688e-02 1.618531e-02 1.882084e-02 
    53.5                6.156088e-03 6.065828e-03 6.695878e-03 5.516833e-03 8.866065e-03 6.660774e-06 5.674385e-03 1.923534e-03 1.904058e-03 1.638681e-02 1.615246e-02 1.919321e-02 
    54.5                6.307443e-03 5.719346e-03 6.519872e-03 5.646143e-03 8.389142e-03 8.002903e-06 5.568615e-03 1.912330e-03 1.890080e-03 1.604191e-02 1.569038e-02 1.901206e-02 
    55.5                6.241929e-03 5.793319e-03 6.319462e-03 5.619545e-03 8.003721e-03 8.531003e-06 5.420113e-03 1.891530e-03 1.868589e-03 1.559719e-02 1.544618e-02 1.882518e-02 
    56.5                6.123693e-03 5.521023e-03 6.085108e-03 5.601919e-03 7.617303e-03 8.152333e-06 5.242402e-03 1.854437e-03 1.830430e-03 1.510539e-02 1.487669e-02 1.831648e-02 
    57.5                5.892619e-03 5.039708e-03 5.589548e-03 5.280832e-03 6.920103e-03 7.502457e-06 4.832996e-03 1.765052e-03 1.741843e-03 1.393650e-02 1.381623e-02 1.712496e-02 
    58.5                5.431219e-03 4.835968e-03 5.226841e-03 4.995571e-03 6.256120e-03 7.509276e-06 4.551610e-03 1.638190e-03 1.617002e-03 1.294666e-02 1.282103e-02 1.608855e-02 
    59.5                5.135351e-03 4.615856e-03 4.983775e-03 4.794317e-03 5.761281e-03 7.493628e-06 4.369145e-03 1.507685e-03 1.488356e-03 1.223725e-02 1.207425e-02 1.533303e-02 
    60.5                4.963141e-03 4.215907e-03 4.628016e-03 4.593354e-03 5.208951e-03 8.088735e-06 4.080552e-03 1.354023e-03 1.334796e-03 1.141563e-02 1.124006e-02 1.445309e-02 
    61.5                4.507877e-03 3.691544e-03 4.097669e-03 4.297258e-03 4.466257e-03 8.151909e-06 3.641156e-03 1.191131e-03 1.171790e-03 1.022709e-02 9.950603e-03 1.304060e-02 
    62.5                4.168258e-03 3.023800e-03 3.438085e-03 3.758029e-03 3.707472e-03 7.321657e-06 3.067119e-03 1.021202e-03 1.003382e-03 8.698847e-03 8.596364e-03 1.129763e-02 
    63.5                3.413114e-03 2.473584e-03 2.787572e-03 3.114000e-03 2.927199e-03 6.312539e-06 2.499827e-03 8.430598e-04 8.284272e-04 7.062474e-03 6.986150e-03 9.256196e-03 
    64.5                2.813499e-03 1.980065e-03 2.236375e-03 2.565669e-03 2.319162e-03 5.288459e-06 2.011952e-03 6.701113e-04 6.577144e-04 5.711035e-03 5.650481e-03 7.537386e-03 
    65.5                2.238010e-03 1.522728e-03 1.727083e-03 2.083673e-03 1.752872e-03 4.522339e-06 1.562667e-03 5.088954e-04 4.983327e-04 4.482323e-03 4.401650e-03 5.947398e-03 
    66.5                1.800503e-03 1.084994e-03 1.276079e-03 1.624776e-03 1.280305e-03 3.558814e-06 1.159982e-03 3.669870e-04 3.582700e-04 3.381122e-03 3.343386e-03 4.542517e-03 
    67.5                1.325704e-03 7.013061e-04 8.623236e-04 1.165303e-03 8.444889e-04 2.824083e-06 7.887542e-04 2.412290e-04 2.346886e-04 2.337441e-03 2.322354e-03 3.184216e-03 
    68.5                8.958263e-04 4.014518e-04 5.164837e-04 7.868297e-04 5.010036e-04 2.110309e-06 4.759734e-04 1.409153e-04 1.359389e-04 1.481614e-03 1.468538e-03 2.042506e-03 
    69.5                5.522555e-04 1.823081e-04 2.550557e-04 4.674866e-04 2.578719e-04 1.339472e-06 2.366104e-04 6.941198e-05 6.601089e-05 8.111611e-04 8.191020e-04 1.142400e-03 
    70.5                2.795269e-04 4.755620e-05 8.961707e-05 2.132369e-04 1.029115e-04 5.709722e-07 8.337284e-05 2.642232e-05 2.461451e-05 3.366504e-04 3.589483e-04 4.934941e-04 
    71.5                1.018148e-04 6.065384e-06 1.957077e-05 5.973999e-05 2.750756e-05 1.474005e-07 1.816291e-05 6.638320e-06 6.086499e-06 8.812201e-05 1.149340e-04 1.464564e-04 
    72.5                1.799126e-05 1.232779e-07 2.087340e-06 8.609439e-06 3.595516e-06 2.299967e-08 1.956314e-06 9.400658e-07 8.572431e-07 1.175930e-05 1.886189e-05 2.272565e-05 
    73.5                1.437829e-06 0.000000e+00 7.448515e-08 4.543033e-07 1.547011e-07 2.500575e-09 7.386867e-08 4.141629e-08 3.685586e-08 5.659468e-07 1.453395e-06 1.582979e-06 
    74.5                0.000000e+00 0.000000e+00 0.000000e+00 0.000000e+00 0.000000e+00 0.000000e+00 0.000000e+00 0.000000e+00 0.000000e+00 0.000000e+00 0.000000e+00 0.000000e+00 
    75.5                0.000000e+00 0.000000e+00 0.000000e+00 0.000000e+00 0.000000e+00 0.000000e+00 0.000000e+00 0.000000e+00 0.000000e+00 0.000000e+00 0.000000e+00 0.000000e+00 
    76.5                0.000000e+00 0.000000e+00 0.000000e+00 0.000000e+00 0.000000e+00 0.000000e+00 0.000000e+00 0.000000e+00 0.000000e+00 0.000000e+00 0.000000e+00 0.000000e+00 
    77.5                0.000000e+00 0.000000e+00 0.000000e+00 0.000000e+00 0.000000e+00 0.000000e+00 0.000000e+00 0.000000e+00 0.000000e+00 0.000000e+00 0.000000e+00 0.000000e+00 
    78.5                0.000000e+00 0.000000e+00 0.000000e+00 0.000000e+00 0.000000e+00 0.000000e+00 0.000000e+00 0.000000e+00 0.000000e+00 0.000000e+00 0.000000e+00 0.000000e+00 
    79.5                0.000000e+00 0.000000e+00 0.000000e+00 0.000000e+00 0.000000e+00 0.000000e+00 0.000000e+00 0.000000e+00 0.000000e+00 0.000000e+00 0.000000e+00 0.000000e+00 


