# 80 rows of flux data
# 12 columns of flux data
# 
# total cross-sectional flux  2.285896e+00 /m^2/yr
#
#                             +x ram      -x wake      +y port -y starboard    +z zenith     -z nadir        Earth          Sun     anti-Sun      rot (x)      rot (y)      rot (z) 
# average speed (km/s)         24.50        24.49        22.77        18.70        24.66        23.55        24.49        25.02        25.02        24.05        24.57        23.99 
# total flux (#/m2/yr)  6.955763e-01 6.949335e-01 3.639363e-01 1.488766e-01 1.373611e+00 4.979822e-04 6.883873e-01 9.970873e-01 9.973241e-01 1.552343e+00 2.177259e+00 1.576687e+00 
# velocity (km/s)
     0.5                0.000000e+00 0.000000e+00 0.000000e+00 0.000000e+00 0.000000e+00 0.000000e+00 0.000000e+00 0.000000e+00 0.000000e+00 0.000000e+00 0.000000e+00 0.000000e+00 
     1.5                0.000000e+00 0.000000e+00 0.000000e+00 0.000000e+00 0.000000e+00 0.000000e+00 0.000000e+00 0.000000e+00 0.000000e+00 0.000000e+00 0.000000e+00 0.000000e+00 
     2.5                2.492497e-08 3.681027e-08 0.000000e+00 5.959183e-09 1.702000e-09 1.255270e-10 2.482629e-08 2.874444e-08 1.947608e-08 6.484102e-09 6.177832e-08 6.208131e-08 
     3.5                3.049217e-05 3.078396e-05 4.970040e-06 7.584334e-06 1.488326e-05 5.435898e-08 3.036223e-05 1.733807e-05 1.723546e-05 2.263588e-05 6.437946e-05 6.380138e-05 
     4.5                2.173111e-04 2.188087e-04 7.729929e-05 6.270382e-05 2.616891e-04 2.677924e-07 2.164670e-04 1.284814e-04 1.281237e-04 3.315168e-04 5.581496e-04 4.745632e-04 
     5.5                8.403332e-04 8.462541e-04 3.963910e-04 3.125236e-04 1.158500e-03 9.637148e-07 8.369978e-04 5.534134e-04 5.523666e-04 1.507890e-03 2.266596e-03 1.920160e-03 
     6.5                2.177896e-03 2.183651e-03 1.291060e-03 8.967479e-04 3.709104e-03 2.041089e-06 2.168403e-03 1.687221e-03 1.686382e-03 4.705049e-03 6.374804e-03 5.179824e-03 
     7.5                3.856971e-03 3.864535e-03 2.479901e-03 1.741683e-03 6.871921e-03 3.626661e-06 3.838673e-03 3.292230e-03 3.291443e-03 8.816384e-03 1.153156e-02 9.412055e-03 
     8.5                6.439160e-03 6.444044e-03 4.267839e-03 2.917551e-03 1.160855e-02 5.835373e-06 6.406965e-03 5.701731e-03 5.703730e-03 1.489219e-02 1.933710e-02 1.584146e-02 
     9.5                9.528003e-03 9.530923e-03 6.385686e-03 4.246399e-03 1.768952e-02 8.233424e-06 9.476851e-03 8.836561e-03 8.838921e-03 2.246439e-02 2.897479e-02 2.340962e-02 
    10.5                1.219036e-02 1.218309e-02 8.772616e-03 5.866252e-03 2.383854e-02 1.019789e-05 1.211897e-02 1.246854e-02 1.247136e-02 3.043390e-02 3.799353e-02 3.061124e-02 
    11.5                1.445986e-02 1.445692e-02 1.071966e-02 7.383848e-03 2.815745e-02 1.245615e-05 1.436256e-02 1.625279e-02 1.625593e-02 3.654104e-02 4.498051e-02 3.693353e-02 
    12.5                1.625931e-02 1.624944e-02 1.219051e-02 8.267449e-03 3.229631e-02 1.364786e-05 1.613752e-02 1.973516e-02 1.974052e-02 4.170158e-02 5.105575e-02 4.173699e-02 
    13.5                1.753388e-02 1.752004e-02 1.305146e-02 8.810525e-03 3.475361e-02 1.489787e-05 1.738910e-02 2.250617e-02 2.251138e-02 4.486969e-02 5.500975e-02 4.499924e-02 
    14.5                1.941395e-02 1.940109e-02 1.392540e-02 9.170585e-03 3.795297e-02 1.630645e-05 1.924157e-02 2.578238e-02 2.578789e-02 4.850921e-02 6.049539e-02 4.919595e-02 
    15.5                2.106068e-02 2.104885e-02 1.438712e-02 9.012542e-03 4.120506e-02 1.737774e-05 2.086350e-02 2.883487e-02 2.884194e-02 5.153372e-02 6.567003e-02 5.231323e-02 
    16.5                2.276805e-02 2.274752e-02 1.499292e-02 8.904697e-03 4.471546e-02 1.821957e-05 2.254415e-02 3.195952e-02 3.196694e-02 5.496363e-02 7.109251e-02 5.567074e-02 
    17.5                2.406607e-02 2.405143e-02 1.521659e-02 8.512565e-03 4.725057e-02 1.879078e-05 2.382069e-02 3.443719e-02 3.444482e-02 5.705021e-02 7.514430e-02 5.791059e-02 
    18.5                2.531142e-02 2.529425e-02 1.525331e-02 7.980234e-03 4.956171e-02 1.927497e-05 2.504452e-02 3.688390e-02 3.689125e-02 5.875451e-02 7.893248e-02 5.980703e-02 
    19.5                2.635510e-02 2.633529e-02 1.534539e-02 7.581291e-03 5.178825e-02 1.965160e-05 2.606892e-02 3.900550e-02 3.901530e-02 6.051833e-02 8.230961e-02 6.147601e-02 
    20.5                2.690555e-02 2.688453e-02 1.521922e-02 7.096465e-03 5.293767e-02 1.974496e-05 2.660824e-02 4.028049e-02 4.028964e-02 6.113972e-02 8.408765e-02 6.213681e-02 
    21.5                2.747433e-02 2.745659e-02 1.488615e-02 6.415414e-03 5.380004e-02 1.992462e-05 2.716700e-02 4.130686e-02 4.131726e-02 6.125567e-02 8.567705e-02 6.255110e-02 
    22.5                2.843021e-02 2.841023e-02 1.491906e-02 6.113257e-03 5.551849e-02 2.045646e-05 2.810900e-02 4.290106e-02 4.291085e-02 6.266619e-02 8.852912e-02 6.417800e-02 
    23.5                2.903754e-02 2.901669e-02 1.482548e-02 5.593237e-03 5.696393e-02 2.041481e-05 2.870651e-02 4.406805e-02 4.407816e-02 6.355965e-02 9.060994e-02 6.492176e-02 
    24.5                2.916913e-02 2.914552e-02 1.446884e-02 5.062231e-03 5.726294e-02 2.031804e-05 2.883458e-02 4.434941e-02 4.435935e-02 6.329967e-02 9.105175e-02 6.468623e-02 
    25.5                2.921112e-02 2.918717e-02 1.406420e-02 4.532548e-03 5.735272e-02 2.011159e-05 2.887623e-02 4.438525e-02 4.439537e-02 6.284209e-02 9.118390e-02 6.427989e-02 
    26.5                2.901605e-02 2.899072e-02 1.355654e-02 3.984012e-03 5.709311e-02 1.973815e-05 2.868341e-02 4.410376e-02 4.411390e-02 6.201642e-02 9.066027e-02 6.339666e-02 
    27.5                2.827149e-02 2.824438e-02 1.292093e-02 3.481928e-03 5.589789e-02 1.901773e-05 2.794772e-02 4.300630e-02 4.301797e-02 6.031161e-02 8.854250e-02 6.144415e-02 
    28.5                2.743246e-02 2.740710e-02 1.219066e-02 3.007716e-03 5.410145e-02 1.839709e-05 2.711978e-02 4.157939e-02 4.158762e-02 5.801828e-02 8.580641e-02 5.930306e-02 
    29.5                2.649878e-02 2.647101e-02 1.152677e-02 2.583454e-03 5.241269e-02 1.756943e-05 2.619822e-02 4.008389e-02 4.009478e-02 5.588604e-02 8.298790e-02 5.701803e-02 
    30.5                2.522651e-02 2.519944e-02 1.075114e-02 2.177361e-03 5.000493e-02 1.663167e-05 2.494253e-02 3.806037e-02 3.806896e-02 5.303820e-02 7.908940e-02 5.407025e-02 
    31.5                2.383149e-02 2.380339e-02 9.926519e-03 1.776156e-03 4.733540e-02 1.556736e-05 2.356481e-02 3.582148e-02 3.583062e-02 4.993626e-02 7.478412e-02 5.086348e-02 
    32.5                2.222451e-02 2.219836e-02 9.064342e-03 1.413934e-03 4.426966e-02 1.440239e-05 2.197810e-02 3.326158e-02 3.326984e-02 4.646877e-02 6.983518e-02 4.726364e-02 
    33.5                2.041150e-02 2.038251e-02 8.194932e-03 1.115217e-03 4.085283e-02 1.306567e-05 2.018758e-02 3.040471e-02 3.041191e-02 4.270491e-02 6.427756e-02 4.327782e-02 
    34.5                1.835396e-02 1.832818e-02 7.279418e-03 8.719710e-04 3.688959e-02 1.167481e-05 1.815551e-02 2.720059e-02 2.720736e-02 3.843655e-02 5.791550e-02 3.883466e-02 
    35.5                1.628824e-02 1.626198e-02 6.374514e-03 6.536318e-04 3.285986e-02 1.025054e-05 1.611409e-02 2.400815e-02 2.401586e-02 3.412240e-02 5.148320e-02 3.438928e-02 
    36.5                1.422047e-02 1.419673e-02 5.490026e-03 4.677478e-04 2.878260e-02 8.878100e-06 1.407088e-02 2.082213e-02 2.082643e-02 2.978634e-02 4.501916e-02 2.995630e-02 
    37.5                1.223919e-02 1.221745e-02 4.674197e-03 3.250528e-04 2.487994e-02 7.541833e-06 1.211237e-02 1.779342e-02 1.779818e-02 2.566898e-02 3.882206e-02 2.573445e-02 
    38.5                1.030327e-02 1.028343e-02 3.905248e-03 2.191928e-04 2.105362e-02 6.277178e-06 1.019812e-02 1.487992e-02 1.488395e-02 2.166451e-02 3.276274e-02 2.163188e-02 
    39.5                8.428556e-03 8.410511e-03 3.187846e-03 1.388605e-04 1.738900e-02 5.032846e-06 8.344156e-03 1.210617e-02 1.210984e-02 1.784898e-02 2.692178e-02 1.767704e-02 
    40.5                6.600661e-03 6.583745e-03 2.501440e-03 8.289607e-05 1.377667e-02 3.861088e-06 6.535812e-03 9.429319e-03 9.432475e-03 1.411097e-02 2.120089e-02 1.383311e-02 
    41.5                4.922670e-03 4.908767e-03 1.876752e-03 4.606262e-05 1.041760e-02 2.800594e-06 4.875318e-03 7.002685e-03 7.004946e-03 1.065099e-02 1.591817e-02 1.031354e-02 
    42.5                3.496750e-03 3.486038e-03 1.339464e-03 2.375050e-05 7.481228e-03 1.943279e-06 3.463796e-03 4.946479e-03 4.947818e-03 7.636984e-03 1.136851e-02 7.324026e-03 
    43.5                2.364725e-03 2.356382e-03 9.169630e-04 1.176916e-05 5.143527e-03 1.262970e-06 2.342861e-03 3.331982e-03 3.333207e-03 5.244212e-03 7.749431e-03 4.953681e-03 
    44.5                1.451986e-03 1.446181e-03 5.794961e-04 5.047753e-06 3.261790e-03 7.256520e-07 1.438901e-03 2.055279e-03 2.055938e-03 3.322123e-03 4.836069e-03 3.046012e-03 
    45.5                7.797037e-04 7.758926e-04 3.223521e-04 1.826400e-06 1.818911e-03 3.553408e-07 7.728843e-04 1.111834e-03 1.112116e-03 1.850986e-03 2.647234e-03 1.638554e-03 
    46.5                3.422460e-04 3.401804e-04 1.500604e-04 5.563016e-07 8.477859e-04 1.338423e-07 3.393719e-04 4.981194e-04 4.984799e-04 8.622240e-04 1.199101e-03 7.218249e-04 
    47.5                1.079784e-04 1.072010e-04 5.148470e-05 1.149979e-07 2.911133e-04 3.521516e-08 1.071129e-04 1.632638e-04 1.633355e-04 2.959396e-04 3.969639e-04 2.292230e-04 
    48.5                2.355839e-05 2.337258e-05 1.238195e-05 1.482367e-08 7.003827e-05 5.300261e-09 2.338128e-05 3.733823e-05 3.736658e-05 7.117452e-05 9.168537e-05 5.042767e-05 
    49.5                2.785629e-06 2.761497e-06 1.715670e-06 5.162512e-10 9.705578e-06 1.862389e-10 2.767140e-06 4.834173e-06 4.846458e-06 9.860180e-06 1.194479e-05 6.056107e-06 
    50.5                5.339865e-08 5.363366e-08 4.912210e-08 0.000000e+00 2.778479e-07 0.000000e+00 5.322709e-08 1.235471e-07 1.238916e-07 2.822273e-07 3.059332e-07 1.234371e-07 
    51.5                0.000000e+00 0.000000e+00 0.000000e+00 0.000000e+00 0.000000e+00 0.000000e+00 0.000000e+00 0.000000e+00 0.000000e+00 0.000000e+00 0.000000e+00 0.000000e+00 
    52.5                0.000000e+00 0.000000e+00 0.000000e+00 0.000000e+00 0.000000e+00 0.000000e+00 0.000000e+00 0.000000e+00 0.000000e+00 0.000000e+00 0.000000e+00 0.000000e+00 
    53.5                0.000000e+00 0.000000e+00 0.000000e+00 0.000000e+00 0.000000e+00 0.000000e+00 0.000000e+00 0.000000e+00 0.000000e+00 0.000000e+00 0.000000e+00 0.000000e+00 
    54.5                0.000000e+00 0.000000e+00 0.000000e+00 0.000000e+00 0.000000e+00 0.000000e+00 0.000000e+00 0.000000e+00 0.000000e+00 0.000000e+00 0.000000e+00 0.000000e+00 
    55.5                0.000000e+00 0.000000e+00 0.000000e+00 0.000000e+00 0.000000e+00 0.000000e+00 0.000000e+00 0.000000e+00 0.000000e+00 0.000000e+00 0.000000e+00 0.000000e+00 
    56.5                0.000000e+00 0.000000e+00 0.000000e+00 0.000000e+00 0.000000e+00 0.000000e+00 0.000000e+00 0.000000e+00 0.000000e+00 0.000000e+00 0.000000e+00 0.000000e+00 
    57.5                0.000000e+00 0.000000e+00 0.000000e+00 0.000000e+00 0.000000e+00 0.000000e+00 0.000000e+00 0.000000e+00 0.000000e+00 0.000000e+00 0.000000e+00 0.000000e+00 
    58.5                0.000000e+00 0.000000e+00 0.000000e+00 0.000000e+00 0.000000e+00 0.000000e+00 0.000000e+00 0.000000e+00 0.000000e+00 0.000000e+00 0.000000e+00 0.000000e+00 
    59.5                0.000000e+00 0.000000e+00 0.000000e+00 0.000000e+00 0.000000e+00 0.000000e+00 0.000000e+00 0.000000e+00 0.000000e+00 0.000000e+00 0.000000e+00 0.000000e+00 
    60.5                0.000000e+00 0.000000e+00 0.000000e+00 0.000000e+00 0.000000e+00 0.000000e+00 0.000000e+00 0.000000e+00 0.000000e+00 0.000000e+00 0.000000e+00 0.000000e+00 
    61.5                0.000000e+00 0.000000e+00 0.000000e+00 0.000000e+00 0.000000e+00 0.000000e+00 0.000000e+00 0.000000e+00 0.000000e+00 0.000000e+00 0.000000e+00 0.000000e+00 
    62.5                0.000000e+00 0.000000e+00 0.000000e+00 0.000000e+00 0.000000e+00 0.000000e+00 0.000000e+00 0.000000e+00 0.000000e+00 0.000000e+00 0.000000e+00 0.000000e+00 
    63.5                0.000000e+00 0.000000e+00 0.000000e+00 0.000000e+00 0.000000e+00 0.000000e+00 0.000000e+00 0.000000e+00 0.000000e+00 0.000000e+00 0.000000e+00 0.000000e+00 
    64.5                0.000000e+00 0.000000e+00 0.000000e+00 0.000000e+00 0.000000e+00 0.000000e+00 0.000000e+00 0.000000e+00 0.000000e+00 0.000000e+00 0.000000e+00 0.000000e+00 
    65.5                0.000000e+00 0.000000e+00 0.000000e+00 0.000000e+00 0.000000e+00 0.000000e+00 0.000000e+00 0.000000e+00 0.000000e+00 0.000000e+00 0.000000e+00 0.000000e+00 
    66.5                0.000000e+00 0.000000e+00 0.000000e+00 0.000000e+00 0.000000e+00 0.000000e+00 0.000000e+00 0.000000e+00 0.000000e+00 0.000000e+00 0.000000e+00 0.000000e+00 
    67.5                0.000000e+00 0.000000e+00 0.000000e+00 0.000000e+00 0.000000e+00 0.000000e+00 0.000000e+00 0.000000e+00 0.000000e+00 0.000000e+00 0.000000e+00 0.000000e+00 
    68.5                0.000000e+00 0.000000e+00 0.000000e+00 0.000000e+00 0.000000e+00 0.000000e+00 0.000000e+00 0.000000e+00 0.000000e+00 0.000000e+00 0.000000e+00 0.000000e+00 
    69.5                0.000000e+00 0.000000e+00 0.000000e+00 0.000000e+00 0.000000e+00 0.000000e+00 0.000000e+00 0.000000e+00 0.000000e+00 0.000000e+00 0.000000e+00 0.000000e+00 
    70.5                0.000000e+00 0.000000e+00 0.000000e+00 0.000000e+00 0.000000e+00 0.000000e+00 0.000000e+00 0.000000e+00 0.000000e+00 0.000000e+00 0.000000e+00 0.000000e+00 
    71.5                0.000000e+00 0.000000e+00 0.000000e+00 0.000000e+00 0.000000e+00 0.000000e+00 0.000000e+00 0.000000e+00 0.000000e+00 0.000000e+00 0.000000e+00 0.000000e+00 
    72.5                0.000000e+00 0.000000e+00 0.000000e+00 0.000000e+00 0.000000e+00 0.000000e+00 0.000000e+00 0.000000e+00 0.000000e+00 0.000000e+00 0.000000e+00 0.000000e+00 
    73.5                0.000000e+00 0.000000e+00 0.000000e+00 0.000000e+00 0.000000e+00 0.000000e+00 0.000000e+00 0.000000e+00 0.000000e+00 0.000000e+00 0.000000e+00 0.000000e+00 
    74.5                0.000000e+00 0.000000e+00 0.000000e+00 0.000000e+00 0.000000e+00 0.000000e+00 0.000000e+00 0.000000e+00 0.000000e+00 0.000000e+00 0.000000e+00 0.000000e+00 
    75.5                0.000000e+00 0.000000e+00 0.000000e+00 0.000000e+00 0.000000e+00 0.000000e+00 0.000000e+00 0.000000e+00 0.000000e+00 0.000000e+00 0.000000e+00 0.000000e+00 
    76.5                0.000000e+00 0.000000e+00 0.000000e+00 0.000000e+00 0.000000e+00 0.000000e+00 0.000000e+00 0.000000e+00 0.000000e+00 0.000000e+00 0.000000e+00 0.000000e+00 
    77.5                0.000000e+00 0.000000e+00 0.000000e+00 0.000000e+00 0.000000e+00 0.000000e+00 0.000000e+00 0.000000e+00 0.000000e+00 0.000000e+00 0.000000e+00 0.000000e+00 
    78.5                0.000000e+00 0.000000e+00 0.000000e+00 0.000000e+00 0.000000e+00 0.000000e+00 0.000000e+00 0.000000e+00 0.000000e+00 0.000000e+00 0.000000e+00 0.000000e+00 
    79.5                0.000000e+00 0.000000e+00 0.000000e+00 0.000000e+00 0.000000e+00 0.000000e+00 0.000000e+00 0.000000e+00 0.000000e+00 0.000000e+00 0.000000e+00 0.000000e+00 


