# 80 rows of flux data
# 12 columns of flux data
# 
# total cross-sectional flux  1.050493e+00 /m^2/yr
#
#                             +x ram      -x wake      +y port -y starboard    +z zenith     -z nadir        Earth          Sun     anti-Sun      rot (x)      rot (y)      rot (z) 
# average speed (km/s)         36.98        38.26        28.27        41.66        34.06        37.63        30.04        28.19        27.70        33.82        35.77        35.08 
# total flux (#/m2/yr)  2.597565e-01 2.178768e-01 3.668163e-01 2.033292e-01 5.197867e-01 3.525007e-04 9.199503e-02 1.725329e-01 1.674918e-01 8.694510e-01 7.835383e-01 8.181888e-01 
# velocity (km/s)
     0.5                0.000000e+00 0.000000e+00 0.000000e+00 0.000000e+00 0.000000e+00 0.000000e+00 0.000000e+00 0.000000e+00 0.000000e+00 0.000000e+00 0.000000e+00 0.000000e+00 
     1.5                0.000000e+00 0.000000e+00 0.000000e+00 0.000000e+00 0.000000e+00 0.000000e+00 0.000000e+00 0.000000e+00 0.000000e+00 0.000000e+00 0.000000e+00 0.000000e+00 
     2.5                2.895335e-05 1.195427e-04 8.123482e-05 7.943274e-05 1.557190e-04 6.842812e-08 2.383157e-05 8.315648e-05 7.657744e-05 2.500553e-04 2.407375e-04 2.428933e-04 
     3.5                3.468627e-04 4.753958e-04 3.619159e-04 4.376651e-04 7.861924e-04 4.118667e-07 1.079187e-04 4.444099e-04 4.122361e-04 1.258658e-03 1.268616e-03 1.274948e-03 
     4.5                9.568078e-04 8.473303e-04 8.032222e-04 9.407726e-04 1.691090e-03 1.063030e-06 2.258823e-04 9.848237e-04 9.429451e-04 2.729144e-03 2.758074e-03 2.787115e-03 
     5.5                1.620569e-03 1.261821e-03 1.414882e-03 1.444005e-03 2.734857e-03 1.836057e-06 3.835040e-04 1.624908e-03 1.581845e-03 4.443925e-03 4.424312e-03 4.500418e-03 
     6.5                2.301244e-03 1.639770e-03 2.241181e-03 1.898668e-03 3.902432e-03 2.575721e-06 5.749711e-04 2.267886e-03 2.238467e-03 6.376952e-03 6.177389e-03 6.333074e-03 
     7.5                2.876913e-03 2.006570e-03 3.196616e-03 2.246256e-03 5.060596e-03 3.294922e-06 7.944051e-04 2.856346e-03 2.839143e-03 8.310661e-03 7.829156e-03 8.094318e-03 
     8.5                3.399258e-03 2.347947e-03 4.163441e-03 2.537404e-03 6.163448e-03 3.929724e-06 1.006295e-03 3.398810e-03 3.396183e-03 1.015897e-02 9.373434e-03 9.755832e-03 
     9.5                3.817520e-03 2.605177e-03 5.128117e-03 2.732204e-03 7.188034e-03 4.312922e-06 1.210225e-03 3.875013e-03 3.870056e-03 1.184937e-02 1.070853e-02 1.119820e-02 
    10.5                4.154519e-03 2.910320e-03 6.119255e-03 2.875645e-03 8.149097e-03 4.785645e-06 1.422873e-03 4.337372e-03 4.318720e-03 1.347781e-02 1.197020e-02 1.259842e-02 
    11.5                4.525836e-03 3.136580e-03 7.304430e-03 2.996786e-03 9.267243e-03 5.118853e-06 1.643553e-03 4.805895e-03 4.771745e-03 1.532835e-02 1.332397e-02 1.410678e-02 
    12.5                4.793731e-03 3.310153e-03 8.249484e-03 3.019613e-03 1.006552e-02 5.370474e-06 1.857681e-03 5.138206e-03 5.095569e-03 1.669442e-02 1.429109e-02 1.521315e-02 
    13.5                4.953970e-03 3.344480e-03 9.133799e-03 2.946108e-03 1.073679e-02 5.323046e-06 1.984630e-03 5.269991e-03 5.226488e-03 1.776935e-02 1.498890e-02 1.603420e-02 
    14.5                4.854162e-03 3.466421e-03 9.635968e-03 2.885341e-03 1.108322e-02 5.331853e-06 2.060096e-03 5.327472e-03 5.277430e-03 1.834495e-02 1.528856e-02 1.642269e-02 
    15.5                5.007322e-03 3.529237e-03 1.056287e-02 2.819859e-03 1.177888e-02 5.379101e-06 2.228273e-03 5.442085e-03 5.392286e-03 1.950727e-02 1.601134e-02 1.728818e-02 
    16.5                4.963109e-03 3.579282e-03 1.081347e-02 2.773692e-03 1.193048e-02 5.365837e-06 2.260657e-03 5.457172e-03 5.407413e-03 1.976770e-02 1.613285e-02 1.745468e-02 
    17.5                4.979247e-03 3.590739e-03 1.121401e-02 2.695832e-03 1.216700e-02 5.371127e-06 2.348320e-03 5.426261e-03 5.377350e-03 2.019292e-02 1.634463e-02 1.773867e-02 
    18.5                4.942094e-03 3.652675e-03 1.163650e-02 2.594570e-03 1.241804e-02 5.210608e-06 2.433430e-03 5.384248e-03 5.334767e-03 2.061731e-02 1.655803e-02 1.801379e-02 
    19.5                4.901612e-03 3.635239e-03 1.174511e-02 2.549997e-03 1.243919e-02 5.284549e-06 2.479288e-03 5.275622e-03 5.223030e-03 2.070329e-02 1.650703e-02 1.799685e-02 
    20.5                4.827630e-03 3.580209e-03 1.169702e-02 2.389698e-03 1.220337e-02 5.244467e-06 2.506903e-03 5.087957e-03 5.039387e-03 2.037202e-02 1.620186e-02 1.770551e-02 
    21.5                4.675044e-03 3.629875e-03 1.182187e-02 2.314209e-03 1.221901e-02 5.159139e-06 2.539214e-03 4.946629e-03 4.898608e-03 2.043038e-02 1.613121e-02 1.766026e-02 
    22.5                4.739959e-03 3.553488e-03 1.206937e-02 2.236305e-03 1.232852e-02 5.182608e-06 2.621203e-03 4.822963e-03 4.774627e-03 2.066046e-02 1.620280e-02 1.778017e-02 
    23.5                4.518830e-03 3.410888e-03 1.145111e-02 2.076236e-03 1.164457e-02 4.881349e-06 2.508473e-03 4.514598e-03 4.470678e-03 1.953875e-02 1.534936e-02 1.684298e-02 
    24.5                4.258478e-03 3.327690e-03 1.099310e-02 1.947390e-03 1.112608e-02 4.647926e-06 2.452681e-03 4.246995e-03 4.204740e-03 1.871306e-02 1.465522e-02 1.608803e-02 
    25.5                4.163629e-03 3.240461e-03 1.077993e-02 1.847867e-03 1.083138e-02 4.566522e-06 2.429611e-03 4.017155e-03 3.976441e-03 1.824820e-02 1.425857e-02 1.567420e-02 
    26.5                3.987857e-03 3.213924e-03 1.038275e-02 1.788328e-03 1.041913e-02 4.611534e-06 2.402135e-03 3.808583e-03 3.767120e-03 1.762473e-02 1.375789e-02 1.512855e-02 
    27.5                3.923134e-03 3.087594e-03 9.971705e-03 1.705727e-03 9.970031e-03 4.597752e-06 2.374838e-03 3.601145e-03 3.561376e-03 1.694932e-02 1.323190e-02 1.455193e-02 
    28.5                3.745960e-03 3.019399e-03 9.556157e-03 1.605010e-03 9.493186e-03 4.590486e-06 2.328576e-03 3.337027e-03 3.299035e-03 1.622149e-02 1.265637e-02 1.393228e-02 
    29.5                3.608492e-03 2.805546e-03 9.028877e-03 1.538357e-03 8.953174e-03 4.654016e-06 2.224085e-03 3.029857e-03 2.990766e-03 1.537054e-02 1.195937e-02 1.318354e-02 
    30.5                3.342206e-03 2.731146e-03 8.624858e-03 1.409595e-03 8.498756e-03 4.330772e-06 2.122603e-03 2.808956e-03 2.772750e-03 1.459145e-02 1.132798e-02 1.249366e-02 
    31.5                3.232822e-03 2.725138e-03 8.363479e-03 1.364947e-03 8.198190e-03 4.551178e-06 2.135857e-03 2.644521e-03 2.609344e-03 1.418678e-02 1.099120e-02 1.213674e-02 
    32.5                3.150620e-03 2.621063e-03 7.805908e-03 1.381747e-03 7.699088e-03 4.964122e-06 2.046828e-03 2.435256e-03 2.397776e-03 1.343864e-02 1.044790e-02 1.154284e-02 
    33.5                3.063691e-03 2.686700e-03 7.504650e-03 1.442863e-03 7.435629e-03 5.711639e-06 2.042806e-03 2.258224e-03 2.216988e-03 1.312753e-02 1.022341e-02 1.131862e-02 
    34.5                3.126224e-03 2.693128e-03 7.503317e-03 1.502505e-03 7.458774e-03 6.074039e-06 2.068522e-03 2.175467e-03 2.130750e-03 1.324459e-02 1.029935e-02 1.140993e-02 
    35.5                3.016107e-03 2.606757e-03 6.781925e-03 1.578182e-03 6.895335e-03 6.426936e-06 1.924276e-03 2.040317e-03 1.992803e-03 1.237024e-02 9.708188e-03 1.073693e-02 
    36.5                2.926843e-03 2.664811e-03 6.542115e-03 1.651945e-03 6.738407e-03 6.816877e-06 1.894046e-03 1.913813e-03 1.862931e-03 1.216758e-02 9.571787e-03 1.057873e-02 
    37.5                3.052226e-03 2.749880e-03 6.490382e-03 1.761613e-03 6.823923e-03 6.818133e-06 1.875218e-03 1.859657e-03 1.803536e-03 1.231407e-02 9.806868e-03 1.077738e-02 
    38.5                2.968806e-03 2.958361e-03 6.098430e-03 1.981806e-03 6.754960e-03 6.763289e-06 1.774100e-03 1.792868e-03 1.726678e-03 1.218897e-02 9.858357e-03 1.073173e-02 
    39.5                3.211336e-03 2.848299e-03 5.870499e-03 2.158841e-03 6.760600e-03 6.853803e-06 1.732119e-03 1.743444e-03 1.670307e-03 1.221767e-02 9.980529e-03 1.079894e-02 
    40.5                3.156924e-03 2.940863e-03 5.711953e-03 2.164703e-03 6.632499e-03 6.962571e-06 1.705840e-03 1.675062e-03 1.602886e-03 1.202252e-02 9.916328e-03 1.070771e-02 
    41.5                3.193361e-03 3.254988e-03 5.482531e-03 2.484011e-03 6.788391e-03 7.308931e-06 1.656881e-03 1.661970e-03 1.578109e-03 1.229129e-02 1.032261e-02 1.104762e-02 
    42.5                3.485165e-03 3.162993e-03 5.055918e-03 2.791042e-03 6.784910e-03 7.465961e-06 1.545741e-03 1.660121e-03 1.566308e-03 1.225129e-02 1.050025e-02 1.112839e-02 
    43.5                3.390662e-03 3.346773e-03 4.673179e-03 2.850339e-03 6.584470e-03 7.181732e-06 1.436052e-03 1.609570e-03 1.514745e-03 1.182906e-02 1.041868e-02 1.095824e-02 
    44.5                3.550177e-03 3.684229e-03 4.646405e-03 3.257204e-03 7.016695e-03 7.645333e-06 1.446049e-03 1.663985e-03 1.555850e-03 1.254447e-02 1.116415e-02 1.165437e-02 
    45.5                3.916986e-03 3.664097e-03 4.450311e-03 3.486992e-03 7.137557e-03 7.557130e-06 1.379128e-03 1.667922e-03 1.554437e-03 1.270416e-02 1.154203e-02 1.195999e-02 
    46.5                3.842128e-03 3.762480e-03 4.213339e-03 3.627883e-03 7.079908e-03 7.903331e-06 1.323834e-03 1.633627e-03 1.517509e-03 1.258636e-02 1.152998e-02 1.191823e-02 
    47.5                3.987815e-03 4.018505e-03 4.054045e-03 3.890349e-03 7.247514e-03 8.135110e-06 1.284417e-03 1.656652e-03 1.534419e-03 1.278491e-02 1.199187e-02 1.232377e-02 
    48.5                4.076623e-03 4.401589e-03 3.752222e-03 4.327451e-03 7.586667e-03 7.696255e-06 1.175643e-03 1.708616e-03 1.574740e-03 1.312540e-02 1.263275e-02 1.281500e-02 
    49.5                4.520409e-03 4.838199e-03 3.678021e-03 4.819780e-03 8.084987e-03 8.276006e-06 1.163711e-03 1.775200e-03 1.628164e-03 1.387600e-02 1.373687e-02 1.385254e-02 
    50.5                4.811281e-03 5.541557e-03 3.505246e-03 5.532260e-03 8.810556e-03 8.428335e-06 1.107663e-03 1.867491e-03 1.701201e-03 1.487362e-02 1.511262e-02 1.508779e-02 
    51.5                5.494800e-03 6.100860e-03 3.292772e-03 6.483676e-03 9.788792e-03 8.752930e-06 1.039374e-03 1.963832e-03 1.773112e-03 1.616733e-02 1.687770e-02 1.667200e-02 
    52.5                6.192360e-03 6.102125e-03 2.992270e-03 6.981305e-03 1.017578e-02 8.704557e-06 9.435687e-04 2.014069e-03 1.813528e-03 1.652990e-02 1.774491e-02 1.740680e-02 
    53.5                6.307728e-03 6.185452e-03 2.676649e-03 7.165940e-03 1.019000e-02 8.384007e-06 8.433383e-04 2.028803e-03 1.827934e-03 1.634134e-02 1.792470e-02 1.749027e-02 
    54.5                6.422417e-03 5.828570e-03 2.381185e-03 7.140811e-03 9.980385e-03 7.841838e-06 7.474275e-04 2.005118e-03 1.809028e-03 1.584525e-02 1.757579e-02 1.707017e-02 
    55.5                6.353448e-03 5.873102e-03 2.194948e-03 7.015051e-03 9.714629e-03 7.566637e-06 6.872603e-04 1.971893e-03 1.783245e-03 1.533763e-02 1.734876e-02 1.682064e-02 
    56.5                6.213332e-03 5.597981e-03 1.964582e-03 6.930679e-03 9.470521e-03 7.070906e-06 6.159505e-04 1.923472e-03 1.740752e-03 1.484944e-02 1.683153e-02 1.626436e-02 
    57.5                5.982162e-03 5.110120e-03 1.726223e-03 6.485279e-03 8.792554e-03 6.507680e-06 5.410223e-04 1.822417e-03 1.655557e-03 1.370445e-02 1.573727e-02 1.517847e-02 
    58.5                5.501827e-03 4.900643e-03 1.484846e-03 6.112203e-03 8.201910e-03 5.909204e-06 4.659139e-04 1.685086e-03 1.531404e-03 1.267922e-02 1.471840e-02 1.416013e-02 
    59.5                5.200282e-03 4.671878e-03 1.282856e-03 5.862130e-03 7.774082e-03 5.478185e-06 4.048069e-04 1.548714e-03 1.404238e-03 1.193507e-02 1.396230e-02 1.340139e-02 
    60.5                5.018104e-03 4.244071e-03 1.123532e-03 5.495460e-03 7.237994e-03 5.069404e-06 3.560393e-04 1.384707e-03 1.252099e-03 1.103706e-02 1.305999e-02 1.251527e-02 
    61.5                4.547144e-03 3.696655e-03 8.943545e-04 5.002896e-03 6.506107e-03 4.354953e-06 2.847368e-04 1.213298e-03 1.095527e-03 9.815470e-03 1.167820e-02 1.115593e-02 
    62.5                4.196276e-03 3.028866e-03 7.284816e-04 4.289098e-03 5.553895e-03 3.800441e-06 2.331272e-04 1.034217e-03 9.354844e-04 8.328512e-03 1.011645e-02 9.661518e-03 
    63.5                3.428074e-03 2.467097e-03 5.379134e-04 3.521605e-03 4.519259e-03 3.053714e-06 1.733856e-04 8.492314e-04 7.701379e-04 6.733188e-03 8.247833e-03 7.865102e-03 
    64.5                2.822812e-03 1.974809e-03 4.150991e-04 2.862677e-03 3.660836e-03 2.460370e-06 1.342331e-04 6.730901e-04 6.100832e-04 5.427902e-03 6.700598e-03 6.383351e-03 
    65.5                2.243622e-03 1.506855e-03 2.954606e-04 2.267981e-03 2.877658e-03 1.894670e-06 9.646716e-05 5.085148e-04 4.597187e-04 4.234090e-03 5.250466e-03 4.992824e-03 
    66.5                1.797200e-03 1.070819e-03 2.055569e-04 1.725234e-03 2.176818e-03 1.422171e-06 6.770657e-05 3.651860e-04 3.288671e-04 3.180422e-03 3.996308e-03 3.796913e-03 
    67.5                1.319587e-03 6.852355e-04 1.294198e-04 1.196010e-03 1.500233e-03 9.934865e-07 4.311468e-05 2.380020e-04 2.134840e-04 2.174967e-03 2.778383e-03 2.637937e-03 
    68.5                8.871627e-04 3.838696e-04 7.179400e-05 7.573606e-04 9.437448e-04 6.172878e-07 2.430513e-05 1.375001e-04 1.223004e-04 1.354152e-03 1.756025e-03 1.665046e-03 
    69.5                5.433634e-04 1.694934e-04 3.482090e-05 4.152692e-04 5.144357e-04 3.494873e-07 1.209261e-05 6.732489e-05 5.921185e-05 7.311044e-04 9.729997e-04 9.226527e-04 
    70.5                2.722369e-04 4.317308e-05 1.318423e-05 1.753010e-04 2.161981e-04 1.583915e-07 4.677775e-06 2.566630e-05 2.233820e-05 3.042691e-04 4.224209e-04 4.010738e-04 
    71.5                9.879500e-05 5.663859e-06 3.734579e-06 4.734919e-05 5.841006e-05 5.737824e-08 1.394641e-06 6.517064e-06 5.651355e-06 8.197780e-05 1.302290e-04 1.249115e-04 
    72.5                1.729450e-05 1.185165e-07 4.611726e-07 6.512604e-06 7.991591e-06 1.090518e-08 1.925960e-07 9.154148e-07 8.028110e-07 1.110122e-05 2.055483e-05 1.986867e-05 
    73.5                1.327898e-06 0.000000e+00 1.378800e-08 3.225714e-07 3.900739e-07 1.025422e-09 9.122526e-09 3.903895e-08 3.368698e-08 5.304111e-07 1.422050e-06 1.397393e-06 
    74.5                0.000000e+00 0.000000e+00 0.000000e+00 0.000000e+00 0.000000e+00 0.000000e+00 0.000000e+00 0.000000e+00 0.000000e+00 0.000000e+00 0.000000e+00 0.000000e+00 
    75.5                0.000000e+00 0.000000e+00 0.000000e+00 0.000000e+00 0.000000e+00 0.000000e+00 0.000000e+00 0.000000e+00 0.000000e+00 0.000000e+00 0.000000e+00 0.000000e+00 
    76.5                0.000000e+00 0.000000e+00 0.000000e+00 0.000000e+00 0.000000e+00 0.000000e+00 0.000000e+00 0.000000e+00 0.000000e+00 0.000000e+00 0.000000e+00 0.000000e+00 
    77.5                0.000000e+00 0.000000e+00 0.000000e+00 0.000000e+00 0.000000e+00 0.000000e+00 0.000000e+00 0.000000e+00 0.000000e+00 0.000000e+00 0.000000e+00 0.000000e+00 
    78.5                0.000000e+00 0.000000e+00 0.000000e+00 0.000000e+00 0.000000e+00 0.000000e+00 0.000000e+00 0.000000e+00 0.000000e+00 0.000000e+00 0.000000e+00 0.000000e+00 
    79.5                0.000000e+00 0.000000e+00 0.000000e+00 0.000000e+00 0.000000e+00 0.000000e+00 0.000000e+00 0.000000e+00 0.000000e+00 0.000000e+00 0.000000e+00 0.000000e+00 


