# 80 rows of flux data
# 12 columns of flux data
# 
# total cross-sectional flux  2.306348e+00 /m^2/yr
#
#                             +x ram      -x wake      +y port -y starboard    +z zenith     -z nadir        Earth          Sun     anti-Sun      rot (x)      rot (y)      rot (z) 
# average speed (km/s)         24.48        24.47        25.02        17.12        24.28        23.44        24.47        24.98        24.98        23.97        24.40        24.36 
# total flux (#/m2/yr)  7.022854e-01 7.017809e-01 9.398607e-01 1.124031e-01 1.039330e+00 7.143406e-04 6.957472e-01 1.005525e+00 1.005767e+00 1.564441e+00 1.935813e+00 1.940064e+00 
# velocity (km/s)
     0.5                0.000000e+00 0.000000e+00 0.000000e+00 0.000000e+00 0.000000e+00 0.000000e+00 0.000000e+00 0.000000e+00 0.000000e+00 0.000000e+00 0.000000e+00 0.000000e+00 
     1.5                0.000000e+00 0.000000e+00 0.000000e+00 0.000000e+00 0.000000e+00 0.000000e+00 0.000000e+00 0.000000e+00 0.000000e+00 0.000000e+00 0.000000e+00 0.000000e+00 
     2.5                5.450558e-07 5.285640e-07 0.000000e+00 1.211594e-06 8.926084e-08 4.279576e-09 5.411980e-07 3.592572e-07 3.689198e-07 1.218642e-06 1.094880e-06 1.733900e-06 
     3.5                4.226985e-05 4.238372e-05 5.577676e-06 3.769820e-05 2.059978e-05 8.638072e-08 4.211876e-05 2.308663e-05 2.307180e-05 5.300253e-05 8.914258e-05 1.037947e-04 
     4.5                2.635770e-04 2.644519e-04 1.516412e-04 1.886843e-04 2.513640e-04 4.491428e-07 2.627247e-04 1.544455e-04 1.542745e-04 4.647612e-04 6.284204e-04 6.877378e-04 
     5.5                9.526645e-04 9.565094e-04 7.012336e-04 6.303849e-04 1.069834e-03 1.399829e-06 9.495383e-04 6.368805e-04 6.360504e-04 1.884785e-03 2.376111e-03 2.553746e-03 
     6.5                2.335579e-03 2.340305e-03 2.321363e-03 1.275842e-03 3.189752e-03 3.001862e-06 2.327292e-03 1.826240e-03 1.825983e-03 5.323933e-03 6.217666e-03 6.500115e-03 
     7.5                4.095622e-03 4.100658e-03 4.301970e-03 2.251133e-03 5.884762e-03 5.356532e-06 4.079449e-03 3.518829e-03 3.518445e-03 9.773055e-03 1.112932e-02 1.159025e-02 
     8.5                6.716021e-03 6.718742e-03 7.237937e-03 3.233413e-03 9.735279e-03 8.842435e-06 6.687153e-03 5.973594e-03 5.974856e-03 1.589232e-02 1.833444e-02 1.879391e-02 
     9.5                9.872528e-03 9.874854e-03 1.117527e-02 4.657000e-03 1.470351e-02 1.216505e-05 9.827806e-03 9.218370e-03 9.220154e-03 2.395429e-02 2.719489e-02 2.794341e-02 
    10.5                1.245291e-02 1.244624e-02 1.498107e-02 5.961245e-03 1.975309e-02 1.512447e-05 1.239010e-02 1.289322e-02 1.289596e-02 3.196100e-02 3.516585e-02 3.600040e-02 
    11.5                1.461699e-02 1.461363e-02 1.745471e-02 6.987825e-03 2.345624e-02 1.782195e-05 1.452805e-02 1.665806e-02 1.665985e-02 3.766732e-02 4.150944e-02 4.218053e-02 
    12.5                1.634511e-02 1.633770e-02 2.005070e-02 7.426967e-03 2.672974e-02 1.994000e-05 1.623262e-02 2.009643e-02 2.010088e-02 4.253644e-02 4.683706e-02 4.732024e-02 
    13.5                1.761253e-02 1.760336e-02 2.152946e-02 7.731591e-03 2.872296e-02 2.133090e-05 1.747662e-02 2.282812e-02 2.283282e-02 4.531278e-02 5.045311e-02 5.069928e-02 
    14.5                1.946693e-02 1.945679e-02 2.374329e-02 7.588715e-03 3.103434e-02 2.320682e-05 1.930477e-02 2.603285e-02 2.603715e-02 4.854280e-02 5.528850e-02 5.528777e-02 
    15.5                2.117927e-02 2.117185e-02 2.636113e-02 7.295964e-03 3.317732e-02 2.478597e-05 2.099437e-02 2.911601e-02 2.912259e-02 5.178134e-02 5.976580e-02 5.989532e-02 
    16.5                2.290130e-02 2.288635e-02 2.900939e-02 6.989999e-03 3.555600e-02 2.608382e-05 2.269240e-02 3.222311e-02 3.222992e-02 5.513093e-02 6.436373e-02 6.444468e-02 
    17.5                2.421443e-02 2.420362e-02 3.105706e-02 6.363896e-03 3.705885e-02 2.720636e-05 2.398630e-02 3.467897e-02 3.468633e-02 5.714920e-02 6.768975e-02 6.769304e-02 
    18.5                2.549800e-02 2.548558e-02 3.302370e-02 5.769879e-03 3.838761e-02 2.805319e-05 2.525049e-02 3.714630e-02 3.715448e-02 5.892307e-02 7.081842e-02 7.084237e-02 
    19.5                2.656709e-02 2.655062e-02 3.487073e-02 5.322390e-03 3.975425e-02 2.847449e-05 2.630248e-02 3.928309e-02 3.929255e-02 6.076701e-02 7.358849e-02 7.363544e-02 
    20.5                2.710237e-02 2.708655e-02 3.592660e-02 4.729536e-03 4.029373e-02 2.864960e-05 2.682810e-02 4.052849e-02 4.053836e-02 6.129589e-02 7.490208e-02 7.490110e-02 
    21.5                2.773164e-02 2.771776e-02 3.682591e-02 4.207096e-03 4.060171e-02 2.915334e-05 2.744882e-02 4.161054e-02 4.162159e-02 6.154729e-02 7.618296e-02 7.622607e-02 
    22.5                2.868483e-02 2.866903e-02 3.821301e-02 3.849607e-03 4.169134e-02 2.964591e-05 2.838986e-02 4.318755e-02 4.319767e-02 6.288889e-02 7.858089e-02 7.857675e-02 
    23.5                2.928916e-02 2.927211e-02 3.947914e-02 3.331492e-03 4.246068e-02 2.962496e-05 2.898610e-02 4.434586e-02 4.435728e-02 6.378184e-02 8.014176e-02 8.013305e-02 
    24.5                2.942845e-02 2.941016e-02 3.989775e-02 2.910186e-03 4.246528e-02 2.937652e-05 2.912281e-02 4.463353e-02 4.464367e-02 6.353808e-02 8.038095e-02 8.038084e-02 
    25.5                2.945990e-02 2.944143e-02 4.012890e-02 2.476397e-03 4.233007e-02 2.900896e-05 2.915494e-02 4.464756e-02 4.465801e-02 6.302214e-02 8.033155e-02 8.029359e-02 
    26.5                2.927488e-02 2.925404e-02 4.012944e-02 2.114619e-03 4.196941e-02 2.832166e-05 2.897262e-02 4.437422e-02 4.438472e-02 6.222114e-02 7.975080e-02 7.972658e-02 
    27.5                2.851352e-02 2.849185e-02 3.940035e-02 1.792359e-03 4.096653e-02 2.714967e-05 2.822010e-02 4.325386e-02 4.326610e-02 6.047118e-02 7.773517e-02 7.769495e-02 
    28.5                2.767855e-02 2.765745e-02 3.824139e-02 1.521530e-03 3.955036e-02 2.619538e-05 2.739561e-02 4.182760e-02 4.183680e-02 5.817683e-02 7.530567e-02 7.526910e-02 
    29.5                2.673069e-02 2.670866e-02 3.713165e-02 1.278179e-03 3.822517e-02 2.490294e-05 2.645944e-02 4.031711e-02 4.032813e-02 5.602610e-02 7.273101e-02 7.269521e-02 
    30.5                2.544455e-02 2.542363e-02 3.549816e-02 1.040747e-03 3.638825e-02 2.351727e-05 2.518885e-02 3.827537e-02 3.828423e-02 5.315071e-02 6.923704e-02 6.919297e-02 
    31.5                2.403592e-02 2.401373e-02 3.366772e-02 8.360241e-04 3.437763e-02 2.195894e-05 2.379631e-02 3.602073e-02 3.603065e-02 5.003470e-02 6.539956e-02 6.535733e-02 
    32.5                2.242002e-02 2.239898e-02 3.153891e-02 6.635893e-04 3.209579e-02 2.026283e-05 2.219915e-02 3.344994e-02 3.345905e-02 4.655676e-02 6.101958e-02 6.098122e-02 
    33.5                2.059128e-02 2.056792e-02 2.914056e-02 5.302297e-04 2.957996e-02 1.834219e-05 2.039110e-02 3.057694e-02 3.058461e-02 4.278366e-02 5.610265e-02 5.606913e-02 
    34.5                1.851257e-02 1.849215e-02 2.633785e-02 4.157104e-04 2.668213e-02 1.635016e-05 1.833570e-02 2.735134e-02 2.735817e-02 3.850001e-02 5.049870e-02 5.046830e-02 
    35.5                1.642782e-02 1.640728e-02 2.348109e-02 3.128862e-04 2.374164e-02 1.434617e-05 1.627301e-02 2.413974e-02 2.414720e-02 3.417010e-02 4.485058e-02 4.482166e-02 
    36.5                1.434218e-02 1.432416e-02 2.058583e-02 2.271070e-04 2.077400e-02 1.242975e-05 1.420960e-02 2.093555e-02 2.094046e-02 2.982497e-02 3.918726e-02 3.916298e-02 
    37.5                1.234469e-02 1.232775e-02 1.780671e-02 1.627812e-04 1.794208e-02 1.054167e-05 1.223264e-02 1.789045e-02 1.789598e-02 2.569915e-02 3.376563e-02 3.374490e-02 
    38.5                1.039154e-02 1.037572e-02 1.507633e-02 1.122995e-04 1.517156e-02 8.761655e-06 1.029893e-02 1.496001e-02 1.496468e-02 2.168556e-02 2.846781e-02 2.844929e-02 
    39.5                8.499033e-03 8.485209e-03 1.245908e-02 7.369823e-05 1.252210e-02 7.016184e-06 8.425049e-03 1.217021e-02 1.217374e-02 1.786487e-02 2.335640e-02 2.334234e-02 
    40.5                6.654466e-03 6.641383e-03 9.874719e-03 4.626843e-05 9.915333e-03 5.359188e-06 6.597895e-03 9.477877e-03 9.480904e-03 1.412172e-02 1.836036e-02 1.834962e-02 
    41.5                4.961839e-03 4.951222e-03 7.469339e-03 2.736815e-05 7.494423e-03 3.891993e-06 4.920769e-03 7.037935e-03 7.039941e-03 1.065791e-02 1.375793e-02 1.375015e-02 
    42.5                3.524279e-03 3.516434e-03 5.365138e-03 1.540559e-05 5.380058e-03 2.704258e-06 3.495836e-03 4.971038e-03 4.972488e-03 7.641235e-03 9.810815e-03 9.805477e-03 
    43.5                2.382578e-03 2.376134e-03 3.689248e-03 8.177937e-06 3.697866e-03 1.756400e-06 2.363827e-03 3.347696e-03 3.349048e-03 5.246520e-03 6.671615e-03 6.668132e-03 
    44.5                1.462133e-03 1.457769e-03 2.339959e-03 3.804103e-06 2.344396e-03 1.007253e-06 1.451029e-03 2.064237e-03 2.064989e-03 3.323262e-03 4.145043e-03 4.143023e-03 
    45.5                7.844964e-04 7.816498e-04 1.305023e-03 1.538197e-06 1.307064e-03 4.914166e-07 7.787888e-04 1.116096e-03 1.116479e-03 1.851447e-03 2.256983e-03 2.255962e-03 
    46.5                3.439188e-04 3.424167e-04 6.083605e-04 4.992555e-07 6.090973e-04 1.847009e-07 3.415659e-04 4.997140e-04 5.000431e-04 8.623630e-04 1.013912e-03 1.013512e-03 
    47.5                1.083459e-04 1.078355e-04 2.089312e-04 1.117578e-07 2.091171e-04 4.866134e-08 1.076617e-04 1.636629e-04 1.637333e-04 2.959665e-04 3.318338e-04 3.317250e-04 
    48.5                2.360312e-05 2.347643e-05 5.027293e-05 1.533953e-08 5.030209e-05 7.246954e-09 2.346922e-05 3.739095e-05 3.742840e-05 7.117481e-05 7.563831e-05 7.561982e-05 
    49.5                2.781192e-06 2.770022e-06 6.968885e-06 5.256856e-10 6.970308e-06 2.659874e-10 2.768785e-06 4.838370e-06 4.846024e-06 9.860874e-06 9.650967e-06 9.649925e-06 
    50.5                5.340270e-08 5.389460e-08 1.997742e-07 0.000000e+00 1.997660e-07 0.000000e+00 5.340070e-08 1.239155e-07 1.238944e-07 2.825882e-07 2.361679e-07 2.361707e-07 
    51.5                0.000000e+00 0.000000e+00 0.000000e+00 0.000000e+00 0.000000e+00 0.000000e+00 0.000000e+00 0.000000e+00 0.000000e+00 0.000000e+00 0.000000e+00 0.000000e+00 
    52.5                0.000000e+00 0.000000e+00 0.000000e+00 0.000000e+00 0.000000e+00 0.000000e+00 0.000000e+00 0.000000e+00 0.000000e+00 0.000000e+00 0.000000e+00 0.000000e+00 
    53.5                0.000000e+00 0.000000e+00 0.000000e+00 0.000000e+00 0.000000e+00 0.000000e+00 0.000000e+00 0.000000e+00 0.000000e+00 0.000000e+00 0.000000e+00 0.000000e+00 
    54.5                0.000000e+00 0.000000e+00 0.000000e+00 0.000000e+00 0.000000e+00 0.000000e+00 0.000000e+00 0.000000e+00 0.000000e+00 0.000000e+00 0.000000e+00 0.000000e+00 
    55.5                0.000000e+00 0.000000e+00 0.000000e+00 0.000000e+00 0.000000e+00 0.000000e+00 0.000000e+00 0.000000e+00 0.000000e+00 0.000000e+00 0.000000e+00 0.000000e+00 
    56.5                0.000000e+00 0.000000e+00 0.000000e+00 0.000000e+00 0.000000e+00 0.000000e+00 0.000000e+00 0.000000e+00 0.000000e+00 0.000000e+00 0.000000e+00 0.000000e+00 
    57.5                0.000000e+00 0.000000e+00 0.000000e+00 0.000000e+00 0.000000e+00 0.000000e+00 0.000000e+00 0.000000e+00 0.000000e+00 0.000000e+00 0.000000e+00 0.000000e+00 
    58.5                0.000000e+00 0.000000e+00 0.000000e+00 0.000000e+00 0.000000e+00 0.000000e+00 0.000000e+00 0.000000e+00 0.000000e+00 0.000000e+00 0.000000e+00 0.000000e+00 
    59.5                0.000000e+00 0.000000e+00 0.000000e+00 0.000000e+00 0.000000e+00 0.000000e+00 0.000000e+00 0.000000e+00 0.000000e+00 0.000000e+00 0.000000e+00 0.000000e+00 
    60.5                0.000000e+00 0.000000e+00 0.000000e+00 0.000000e+00 0.000000e+00 0.000000e+00 0.000000e+00 0.000000e+00 0.000000e+00 0.000000e+00 0.000000e+00 0.000000e+00 
    61.5                0.000000e+00 0.000000e+00 0.000000e+00 0.000000e+00 0.000000e+00 0.000000e+00 0.000000e+00 0.000000e+00 0.000000e+00 0.000000e+00 0.000000e+00 0.000000e+00 
    62.5                0.000000e+00 0.000000e+00 0.000000e+00 0.000000e+00 0.000000e+00 0.000000e+00 0.000000e+00 0.000000e+00 0.000000e+00 0.000000e+00 0.000000e+00 0.000000e+00 
    63.5                0.000000e+00 0.000000e+00 0.000000e+00 0.000000e+00 0.000000e+00 0.000000e+00 0.000000e+00 0.000000e+00 0.000000e+00 0.000000e+00 0.000000e+00 0.000000e+00 
    64.5                0.000000e+00 0.000000e+00 0.000000e+00 0.000000e+00 0.000000e+00 0.000000e+00 0.000000e+00 0.000000e+00 0.000000e+00 0.000000e+00 0.000000e+00 0.000000e+00 
    65.5                0.000000e+00 0.000000e+00 0.000000e+00 0.000000e+00 0.000000e+00 0.000000e+00 0.000000e+00 0.000000e+00 0.000000e+00 0.000000e+00 0.000000e+00 0.000000e+00 
    66.5                0.000000e+00 0.000000e+00 0.000000e+00 0.000000e+00 0.000000e+00 0.000000e+00 0.000000e+00 0.000000e+00 0.000000e+00 0.000000e+00 0.000000e+00 0.000000e+00 
    67.5                0.000000e+00 0.000000e+00 0.000000e+00 0.000000e+00 0.000000e+00 0.000000e+00 0.000000e+00 0.000000e+00 0.000000e+00 0.000000e+00 0.000000e+00 0.000000e+00 
    68.5                0.000000e+00 0.000000e+00 0.000000e+00 0.000000e+00 0.000000e+00 0.000000e+00 0.000000e+00 0.000000e+00 0.000000e+00 0.000000e+00 0.000000e+00 0.000000e+00 
    69.5                0.000000e+00 0.000000e+00 0.000000e+00 0.000000e+00 0.000000e+00 0.000000e+00 0.000000e+00 0.000000e+00 0.000000e+00 0.000000e+00 0.000000e+00 0.000000e+00 
    70.5                0.000000e+00 0.000000e+00 0.000000e+00 0.000000e+00 0.000000e+00 0.000000e+00 0.000000e+00 0.000000e+00 0.000000e+00 0.000000e+00 0.000000e+00 0.000000e+00 
    71.5                0.000000e+00 0.000000e+00 0.000000e+00 0.000000e+00 0.000000e+00 0.000000e+00 0.000000e+00 0.000000e+00 0.000000e+00 0.000000e+00 0.000000e+00 0.000000e+00 
    72.5                0.000000e+00 0.000000e+00 0.000000e+00 0.000000e+00 0.000000e+00 0.000000e+00 0.000000e+00 0.000000e+00 0.000000e+00 0.000000e+00 0.000000e+00 0.000000e+00 
    73.5                0.000000e+00 0.000000e+00 0.000000e+00 0.000000e+00 0.000000e+00 0.000000e+00 0.000000e+00 0.000000e+00 0.000000e+00 0.000000e+00 0.000000e+00 0.000000e+00 
    74.5                0.000000e+00 0.000000e+00 0.000000e+00 0.000000e+00 0.000000e+00 0.000000e+00 0.000000e+00 0.000000e+00 0.000000e+00 0.000000e+00 0.000000e+00 0.000000e+00 
    75.5                0.000000e+00 0.000000e+00 0.000000e+00 0.000000e+00 0.000000e+00 0.000000e+00 0.000000e+00 0.000000e+00 0.000000e+00 0.000000e+00 0.000000e+00 0.000000e+00 
    76.5                0.000000e+00 0.000000e+00 0.000000e+00 0.000000e+00 0.000000e+00 0.000000e+00 0.000000e+00 0.000000e+00 0.000000e+00 0.000000e+00 0.000000e+00 0.000000e+00 
    77.5                0.000000e+00 0.000000e+00 0.000000e+00 0.000000e+00 0.000000e+00 0.000000e+00 0.000000e+00 0.000000e+00 0.000000e+00 0.000000e+00 0.000000e+00 0.000000e+00 
    78.5                0.000000e+00 0.000000e+00 0.000000e+00 0.000000e+00 0.000000e+00 0.000000e+00 0.000000e+00 0.000000e+00 0.000000e+00 0.000000e+00 0.000000e+00 0.000000e+00 
    79.5                0.000000e+00 0.000000e+00 0.000000e+00 0.000000e+00 0.000000e+00 0.000000e+00 0.000000e+00 0.000000e+00 0.000000e+00 0.000000e+00 0.000000e+00 0.000000e+00 


