# 80 rows of flux data
# 12 columns of flux data
# 
# total cross-sectional flux  1.055568e+00 /m^2/yr
#
#                             +x ram      -x wake      +y port -y starboard    +z zenith     -z nadir        Earth          Sun     anti-Sun      rot (x)      rot (y)      rot (z) 
# average speed (km/s)         38.00        36.75        32.35        30.60        37.38        30.63        37.51        27.62        28.07        33.57        37.34        33.62 
# total flux (#/m2/yr)  2.199040e-01 2.618645e-01 3.197352e-01 3.367833e-01 4.639640e-01 3.877009e-04 4.625184e-01 1.637974e-01 1.760701e-01 8.726695e-01 7.464500e-01 8.804954e-01 
# velocity (km/s)
     0.5                0.000000e+00 0.000000e+00 0.000000e+00 0.000000e+00 0.000000e+00 0.000000e+00 0.000000e+00 0.000000e+00 0.000000e+00 0.000000e+00 0.000000e+00 0.000000e+00 
     1.5                0.000000e+00 0.000000e+00 0.000000e+00 0.000000e+00 0.000000e+00 0.000000e+00 0.000000e+00 0.000000e+00 0.000000e+00 0.000000e+00 0.000000e+00 0.000000e+00 
     2.5                1.188231e-04 2.549858e-05 7.095573e-05 7.127166e-05 1.554815e-04 6.629433e-08 1.548340e-04 7.144325e-05 8.140434e-05 2.366523e-04 2.380723e-04 2.254829e-04 
     3.5                4.726848e-04 3.157431e-04 3.471229e-04 3.328009e-04 8.163399e-04 3.706492e-07 8.138257e-04 3.863024e-04 4.308476e-04 1.175202e-03 1.267476e-03 1.150837e-03 
     4.5                8.494965e-04 9.157157e-04 8.126785e-04 7.762244e-04 1.756810e-03 8.829247e-07 1.751704e-03 9.113354e-04 9.637172e-04 2.618699e-03 2.778714e-03 2.624846e-03 
     5.5                1.273451e-03 1.594123e-03 1.404879e-03 1.358457e-03 2.785963e-03 1.560286e-06 2.776293e-03 1.543982e-03 1.612953e-03 4.338736e-03 4.459209e-03 4.393675e-03 
     6.5                1.660291e-03 2.298173e-03 2.129668e-03 2.139069e-03 3.815670e-03 2.508977e-06 3.797689e-03 2.205906e-03 2.266785e-03 6.338294e-03 6.132143e-03 6.427512e-03 
     7.5                2.042958e-03 2.891112e-03 2.887372e-03 2.967686e-03 4.745462e-03 3.457574e-06 4.719243e-03 2.803431e-03 2.877552e-03 8.322738e-03 7.637317e-03 8.440103e-03 
     8.5                2.390550e-03 3.439696e-03 3.617360e-03 3.819662e-03 5.571788e-03 4.541188e-06 5.534010e-03 3.371876e-03 3.426444e-03 1.024518e-02 8.998327e-03 1.039160e-02 
     9.5                2.662355e-03 3.872161e-03 4.311695e-03 4.626056e-03 6.276686e-03 5.468674e-06 6.228423e-03 3.848881e-03 3.922405e-03 1.200629e-02 1.011173e-02 1.214267e-02 
    10.5                2.974656e-03 4.225184e-03 4.987593e-03 5.445833e-03 6.885936e-03 6.498961e-06 6.825422e-03 4.288737e-03 4.400015e-03 1.369351e-02 1.111852e-02 1.386134e-02 
    11.5                3.215921e-03 4.616370e-03 5.763587e-03 6.448999e-03 7.507619e-03 7.816347e-06 7.430425e-03 4.740408e-03 4.895053e-03 1.565560e-02 1.211073e-02 1.580536e-02 
    12.5                3.398028e-03 4.897525e-03 6.355479e-03 7.172081e-03 7.952998e-03 8.649126e-06 7.865427e-03 5.049185e-03 5.244546e-03 1.706467e-02 1.283097e-02 1.722775e-02 
    13.5                3.434635e-03 5.080415e-03 6.820456e-03 7.922992e-03 8.123572e-03 9.891603e-06 8.020179e-03 5.186025e-03 5.394824e-03 1.826653e-02 1.314030e-02 1.844017e-02 
    14.5                3.568972e-03 4.974842e-03 7.077179e-03 8.317379e-03 8.178748e-03 1.044067e-05 8.066259e-03 5.231719e-03 5.462707e-03 1.887495e-02 1.320760e-02 1.902872e-02 
    15.5                3.635419e-03 5.149179e-03 7.609846e-03 9.026993e-03 8.418787e-03 1.131903e-05 8.296402e-03 5.338260e-03 5.597947e-03 2.010456e-02 1.358930e-02 2.025089e-02 
    16.5                3.686929e-03 5.102927e-03 7.728408e-03 9.231324e-03 8.403432e-03 1.166424e-05 8.276129e-03 5.349023e-03 5.614266e-03 2.037265e-02 1.358338e-02 2.051858e-02 
    17.5                3.701223e-03 5.122268e-03 7.932246e-03 9.526206e-03 8.450012e-03 1.212006e-05 8.318806e-03 5.306143e-03 5.588717e-03 2.082535e-02 1.364701e-02 2.096204e-02 
    18.5                3.768105e-03 5.088004e-03 8.155140e-03 9.805161e-03 8.483791e-03 1.235094e-05 8.350489e-03 5.257003e-03 5.561337e-03 2.126538e-02 1.370054e-02 2.140183e-02 
    19.5                3.751782e-03 5.045297e-03 8.228509e-03 9.825473e-03 8.479740e-03 1.211168e-05 8.350784e-03 5.133678e-03 5.451466e-03 2.130370e-02 1.365231e-02 2.139527e-02 
    20.5                3.696855e-03 4.965949e-03 8.139929e-03 9.694338e-03 8.272444e-03 1.186665e-05 8.148258e-03 4.944840e-03 5.261608e-03 2.093967e-02 1.338039e-02 2.108272e-02 
    21.5                3.746946e-03 4.814329e-03 8.184700e-03 9.778134e-03 8.217903e-03 1.199439e-05 8.093983e-03 4.797930e-03 5.121199e-03 2.099874e-02 1.326049e-02 2.110101e-02 
    22.5                3.671732e-03 4.882107e-03 8.320376e-03 9.915440e-03 8.252907e-03 1.195612e-05 8.131082e-03 4.666083e-03 5.003374e-03 2.122092e-02 1.328186e-02 2.130700e-02 
    23.5                3.521603e-03 4.654294e-03 7.892223e-03 9.349743e-03 7.797281e-03 1.114874e-05 7.686228e-03 4.367462e-03 4.682681e-03 2.003832e-02 1.262442e-02 2.016043e-02 
    24.5                3.437771e-03 4.383015e-03 7.591467e-03 8.905271e-03 7.502026e-03 1.037035e-05 7.401285e-03 4.100823e-03 4.404830e-03 1.915972e-02 1.210721e-02 1.925182e-02 
    25.5                3.347345e-03 4.288397e-03 7.437901e-03 8.675924e-03 7.298324e-03 1.003698e-05 7.204177e-03 3.871919e-03 4.169884e-03 1.867167e-02 1.180044e-02 1.876944e-02 
    26.5                3.318839e-03 4.102027e-03 7.197855e-03 8.284929e-03 7.129945e-03 9.277834e-06 7.046582e-03 3.660173e-03 3.951216e-03 1.797117e-02 1.149838e-02 1.804544e-02 
    27.5                3.183723e-03 4.033579e-03 6.949781e-03 7.887704e-03 6.930298e-03 8.557316e-06 6.857908e-03 3.454791e-03 3.733852e-03 1.722904e-02 1.117945e-02 1.730548e-02 
    28.5                3.114876e-03 3.847850e-03 6.667157e-03 7.516558e-03 6.664981e-03 8.052179e-06 6.600403e-03 3.194867e-03 3.461360e-03 1.645663e-02 1.076816e-02 1.654326e-02 
    29.5                2.888564e-03 3.703647e-03 6.324896e-03 7.087645e-03 6.321655e-03 7.440665e-06 6.265065e-03 2.890772e-03 3.142055e-03 1.554753e-02 1.020103e-02 1.562027e-02 
    30.5                2.816566e-03 3.430925e-03 6.028401e-03 6.756527e-03 5.962719e-03 7.084657e-06 5.910304e-03 2.677148e-03 2.911789e-03 1.476806e-02 9.648333e-03 1.484597e-02 
    31.5                2.802705e-03 3.316165e-03 5.871366e-03 6.500347e-03 5.878281e-03 6.616639e-06 5.833173e-03 2.512358e-03 2.740463e-03 1.430581e-02 9.478986e-03 1.437138e-02 
    32.5                2.689146e-03 3.225916e-03 5.537393e-03 6.066982e-03 5.656775e-03 6.095966e-06 5.619166e-03 2.303615e-03 2.516691e-03 1.347992e-02 9.142254e-03 1.354615e-02 
    33.5                2.751092e-03 3.125313e-03 5.377053e-03 5.815571e-03 5.627926e-03 5.671486e-06 5.597733e-03 2.122090e-03 2.330611e-03 1.307055e-02 9.085819e-03 1.313604e-02 
    34.5                2.748978e-03 3.183837e-03 5.428630e-03 5.830421e-03 5.710103e-03 5.563266e-06 5.683732e-03 2.033888e-03 2.243041e-03 1.314544e-02 9.193487e-03 1.320646e-02 
    35.5                2.650727e-03 3.063301e-03 5.022664e-03 5.336201e-03 5.476425e-03 5.063899e-06 5.455003e-03 1.902085e-03 2.092782e-03 1.220440e-02 8.837309e-03 1.226964e-02 
    36.5                2.705424e-03 2.960320e-03 4.914115e-03 5.178124e-03 5.469939e-03 4.829529e-06 5.453535e-03 1.771647e-03 1.958507e-03 1.195283e-02 8.794715e-03 1.199722e-02 
    37.5                2.783113e-03 3.086737e-03 4.975229e-03 5.218904e-03 5.604823e-03 4.892960e-06 5.591154e-03 1.713815e-03 1.900350e-03 1.211019e-02 9.064908e-03 1.220247e-02 
    38.5                2.982769e-03 2.996159e-03 4.883142e-03 5.062775e-03 5.745815e-03 4.688632e-06 5.737539e-03 1.641309e-03 1.826102e-03 1.197598e-02 9.253527e-03 1.203761e-02 
    39.5                2.872224e-03 3.226302e-03 4.866435e-03 4.992152e-03 5.923731e-03 4.551273e-06 5.919823e-03 1.588861e-03 1.773120e-03 1.199807e-02 9.486870e-03 1.203242e-02 
    40.5                2.959276e-03 3.168692e-03 4.779622e-03 4.881774e-03 5.868670e-03 4.514969e-06 5.865799e-03 1.523011e-03 1.700607e-03 1.178376e-02 9.475132e-03 1.188340e-02 
    41.5                3.260001e-03 3.204338e-03 4.820622e-03 4.864190e-03 6.228820e-03 4.484593e-06 6.230573e-03 1.500612e-03 1.682071e-03 1.203241e-02 1.001762e-02 1.210687e-02 
    42.5                3.160924e-03 3.483955e-03 4.723802e-03 4.694454e-03 6.460918e-03 4.316595e-06 6.467138e-03 1.492957e-03 1.672736e-03 1.196349e-02 1.034402e-02 1.201015e-02 
    43.5                3.344480e-03 3.384014e-03 4.517662e-03 4.454980e-03 6.392684e-03 4.261950e-06 6.401488e-03 1.448395e-03 1.619628e-03 1.156110e-02 1.035438e-02 1.170590e-02 
    44.5                3.674938e-03 3.538821e-03 4.730971e-03 4.605289e-03 7.000050e-03 4.347398e-06 7.013185e-03 1.489406e-03 1.671725e-03 1.225291e-02 1.121799e-02 1.231601e-02 
    45.5                3.654439e-03 3.900380e-03 4.766164e-03 4.602312e-03 7.243644e-03 4.402873e-06 7.260691e-03 1.493094e-03 1.674628e-03 1.243004e-02 1.167386e-02 1.257196e-02 
    46.5                3.738943e-03 3.818268e-03 4.651645e-03 4.452834e-03 7.305234e-03 4.278449e-06 7.325010e-03 1.458116e-03 1.635808e-03 1.227082e-02 1.172674e-02 1.237837e-02 
    47.5                3.990660e-03 3.964669e-03 4.641143e-03 4.394659e-03 7.627756e-03 4.344608e-06 7.649851e-03 1.478210e-03 1.657372e-03 1.247215e-02 1.229475e-02 1.263235e-02 
    48.5                4.369781e-03 4.054056e-03 4.648298e-03 4.334653e-03 8.168685e-03 4.380717e-06 8.194681e-03 1.523218e-03 1.707654e-03 1.284637e-02 1.308984e-02 1.293894e-02 
    49.5                4.801565e-03 4.483130e-03 4.831329e-03 4.444199e-03 8.867095e-03 4.696708e-06 8.900793e-03 1.578695e-03 1.772639e-03 1.358071e-02 1.431464e-02 1.380856e-02 
    50.5                5.500290e-03 4.777121e-03 5.048714e-03 4.558528e-03 9.893216e-03 4.962256e-06 9.932491e-03 1.655702e-03 1.865009e-03 1.460357e-02 1.590761e-02 1.482066e-02 
    51.5                6.054973e-03 5.453205e-03 5.266300e-03 4.639247e-03 1.125316e-02 5.269739e-06 1.130180e-02 1.730910e-03 1.959573e-03 1.590863e-02 1.795310e-02 1.601338e-02 
    52.5                6.050144e-03 6.137784e-03 5.200294e-03 4.490527e-03 1.187280e-02 5.358831e-06 1.193071e-02 1.776096e-03 2.008704e-03 1.627793e-02 1.897072e-02 1.643288e-02 
    53.5                6.133060e-03 6.260367e-03 5.002790e-03 4.247261e-03 1.203295e-02 5.346358e-06 1.209517e-02 1.794643e-03 2.022911e-03 1.612274e-02 1.926001e-02 1.632365e-02 
    54.5                5.774530e-03 6.369963e-03 4.758425e-03 3.986140e-03 1.189185e-02 5.140601e-06 1.195478e-02 1.780003e-03 1.999011e-03 1.566478e-02 1.895996e-02 1.578248e-02 
    55.5                5.827073e-03 6.296489e-03 4.553100e-03 3.785125e-03 1.162140e-02 5.083121e-06 1.168311e-02 1.757005e-03 1.965680e-03 1.517096e-02 1.871732e-02 1.549308e-02 
    56.5                5.553247e-03 6.159807e-03 4.345378e-03 3.570614e-03 1.140877e-02 4.811646e-06 1.147046e-02 1.717539e-03 1.917568e-03 1.470395e-02 1.822683e-02 1.488789e-02 
    57.5                5.069609e-03 5.927820e-03 3.955817e-03 3.224523e-03 1.063638e-02 4.502194e-06 1.069551e-02 1.635414e-03 1.816407e-03 1.358179e-02 1.706536e-02 1.381398e-02 
    58.5                4.859728e-03 5.449104e-03 3.592282e-03 2.892091e-03 9.969877e-03 4.165861e-06 1.002711e-02 1.513842e-03 1.679444e-03 1.256800e-02 1.598862e-02 1.278385e-02 
    59.5                4.634706e-03 5.152792e-03 3.328406e-03 2.644692e-03 9.511272e-03 3.867747e-06 9.565733e-03 1.388923e-03 1.543405e-03 1.183929e-02 1.521038e-02 1.202360e-02 
    60.5                4.218643e-03 4.974955e-03 3.025543e-03 2.377782e-03 8.898143e-03 3.611130e-06 8.950884e-03 1.239143e-03 1.380089e-03 1.096575e-02 1.426239e-02 1.116071e-02 
    61.5                3.672377e-03 4.505254e-03 2.608960e-03 2.008408e-03 8.046614e-03 3.155979e-06 8.094512e-03 1.084889e-03 1.208855e-03 9.751367e-03 1.279743e-02 9.824774e-03 
    62.5                3.002938e-03 4.157528e-03 2.168674e-03 1.651847e-03 6.877194e-03 2.773962e-06 6.920476e-03 9.268718e-04 1.030064e-03 8.267601e-03 1.106478e-02 8.461005e-03 
    63.5                2.453408e-03 3.395458e-03 1.722501e-03 1.292096e-03 5.630849e-03 2.236315e-06 5.666771e-03 7.635468e-04 8.461640e-04 6.695613e-03 9.049716e-03 6.859136e-03 
    64.5                1.962969e-03 2.795060e-03 1.366999e-03 1.015737e-03 4.566128e-03 1.813123e-06 4.595624e-03 6.049151e-04 6.703342e-04 5.394535e-03 7.351868e-03 5.535585e-03 
    65.5                1.496604e-03 2.221033e-03 1.037610e-03 7.564423e-04 3.602695e-03 1.393763e-06 3.626667e-03 4.559439e-04 5.063861e-04 4.207500e-03 5.772300e-03 4.289577e-03 
    66.5                1.064357e-03 1.781814e-03 7.594692e-04 5.438531e-04 2.737206e-03 1.056908e-06 2.756078e-03 3.262445e-04 3.636310e-04 3.165111e-03 4.400993e-03 3.246260e-03 
    67.5                6.813772e-04 1.307283e-03 5.031514e-04 3.522720e-04 1.891441e-03 7.424061e-07 1.905145e-03 2.118007e-04 2.369543e-04 2.163971e-03 3.059398e-03 2.240092e-03 
    68.5                3.830910e-04 8.774281e-04 2.991216e-04 2.027302e-04 1.194375e-03 4.656255e-07 1.203425e-03 1.213181e-04 1.367936e-04 1.347826e-03 1.936005e-03 1.400108e-03 
    69.5                1.693487e-04 5.364798e-04 1.529720e-04 9.974466e-05 6.522369e-04 2.607052e-07 6.578397e-04 5.868260e-05 6.691836e-05 7.268950e-04 1.070089e-03 7.704056e-04 
    70.5                4.339694e-05 2.682653e-04 5.949780e-05 3.682551e-05 2.746260e-04 1.209190e-07 2.771697e-04 2.208967e-05 2.544378e-05 3.023539e-04 4.625349e-04 3.336663e-04 
    71.5                5.761816e-06 9.666187e-05 1.512553e-05 9.058514e-06 7.360168e-05 4.500242e-08 7.449290e-05 5.552854e-06 6.419812e-06 8.082435e-05 1.390137e-04 1.066647e-04 
    72.5                1.270283e-07 1.680214e-05 1.822123e-06 9.805073e-07 1.004554e-05 8.285729e-09 1.022214e-05 7.789855e-07 8.925764e-07 1.088208e-05 2.144820e-05 1.727404e-05 
    73.5                0.000000e+00 1.281468e-06 7.043150e-08 2.919222e-08 4.813947e-07 7.684562e-10 4.959723e-07 3.177839e-08 3.700691e-08 5.069372e-07 1.420051e-06 1.287038e-06 
    74.5                0.000000e+00 0.000000e+00 0.000000e+00 0.000000e+00 0.000000e+00 0.000000e+00 0.000000e+00 0.000000e+00 0.000000e+00 0.000000e+00 0.000000e+00 0.000000e+00 
    75.5                0.000000e+00 0.000000e+00 0.000000e+00 0.000000e+00 0.000000e+00 0.000000e+00 0.000000e+00 0.000000e+00 0.000000e+00 0.000000e+00 0.000000e+00 0.000000e+00 
    76.5                0.000000e+00 0.000000e+00 0.000000e+00 0.000000e+00 0.000000e+00 0.000000e+00 0.000000e+00 0.000000e+00 0.000000e+00 0.000000e+00 0.000000e+00 0.000000e+00 
    77.5                0.000000e+00 0.000000e+00 0.000000e+00 0.000000e+00 0.000000e+00 0.000000e+00 0.000000e+00 0.000000e+00 0.000000e+00 0.000000e+00 0.000000e+00 0.000000e+00 
    78.5                0.000000e+00 0.000000e+00 0.000000e+00 0.000000e+00 0.000000e+00 0.000000e+00 0.000000e+00 0.000000e+00 0.000000e+00 0.000000e+00 0.000000e+00 0.000000e+00 
    79.5                0.000000e+00 0.000000e+00 0.000000e+00 0.000000e+00 0.000000e+00 0.000000e+00 0.000000e+00 0.000000e+00 0.000000e+00 0.000000e+00 0.000000e+00 0.000000e+00 


