# 80 rows of flux data
# 12 columns of flux data
# 
# total cross-sectional flux  2.177314e+00 /m^2/yr
#
#                             +x ram      -x wake      +y port -y starboard    +z zenith     -z nadir        Earth          Sun     anti-Sun      rot (x)      rot (y)      rot (z) 
# average speed (km/s)         23.82        24.65        17.35        24.64        23.88        23.50        24.44        24.65        24.66        23.58        24.12        24.10 
# total flux (#/m2/yr)  6.191764e-01 7.256555e-01 1.129516e-01 8.664818e-01 9.657298e-01 7.211999e-04 1.248864e+00 9.441371e-01 9.572979e-01 1.457634e+00 1.834197e+00 1.838130e+00 
# velocity (km/s)
     0.5                0.000000e+00 0.000000e+00 0.000000e+00 0.000000e+00 0.000000e+00 0.000000e+00 0.000000e+00 0.000000e+00 0.000000e+00 0.000000e+00 0.000000e+00 0.000000e+00 
     1.5                0.000000e+00 0.000000e+00 0.000000e+00 0.000000e+00 0.000000e+00 0.000000e+00 0.000000e+00 0.000000e+00 0.000000e+00 0.000000e+00 0.000000e+00 0.000000e+00 
     2.5                5.343002e-06 0.000000e+00 8.205899e-07 8.132422e-07 2.338767e-06 1.315970e-09 1.937862e-06 2.397047e-07 1.684996e-06 3.112305e-06 6.016782e-06 5.698825e-06 
     3.5                1.263928e-04 3.288189e-06 2.222548e-05 5.791188e-05 8.955019e-05 5.688469e-08 9.698789e-05 2.560922e-05 5.625656e-05 1.295244e-04 1.732917e-04 1.661797e-04 
     4.5                5.643489e-04 1.304230e-04 1.268271e-04 3.671658e-04 5.085989e-04 3.418186e-07 5.776791e-04 1.858188e-04 2.937078e-04 7.740693e-04 9.504564e-04 9.368795e-04 
     5.5                1.511728e-03 6.016741e-04 4.463176e-04 1.256207e-03 1.697496e-03 1.176680e-06 1.942140e-03 7.614955e-04 9.706102e-04 2.648887e-03 3.006607e-03 2.999494e-03 
     6.5                2.826623e-03 1.994424e-03 1.034784e-03 2.829652e-03 3.764215e-03 2.940677e-06 4.336493e-03 1.939458e-03 2.209910e-03 5.997584e-03 6.784918e-03 6.832241e-03 
     7.5                4.992153e-03 3.680681e-03 1.955830e-03 4.986997e-03 6.743239e-03 5.404490e-06 7.656034e-03 3.773593e-03 4.010416e-03 1.077260e-02 1.218268e-02 1.227828e-02 
     8.5                7.432088e-03 6.177274e-03 2.950679e-03 8.103773e-03 1.071805e-02 8.557394e-06 1.234335e-02 6.375504e-03 6.472686e-03 1.713197e-02 1.921542e-02 1.937870e-02 
     9.5                9.433267e-03 9.411142e-03 4.104564e-03 1.129150e-02 1.494654e-02 1.185000e-05 1.718006e-02 9.476348e-03 9.473291e-03 2.387971e-02 2.669663e-02 2.690694e-02 
    10.5                1.145457e-02 1.269050e-02 5.592952e-03 1.391671e-02 1.883644e-02 1.588286e-05 2.128825e-02 1.291274e-02 1.297780e-02 3.029585e-02 3.397371e-02 3.432335e-02 
    11.5                1.313951e-02 1.492202e-02 6.836138e-03 1.626947e-02 2.229596e-02 1.857511e-05 2.494318e-02 1.627489e-02 1.645812e-02 3.583393e-02 3.979308e-02 4.023096e-02 
    12.5                1.439058e-02 1.707593e-02 7.593075e-03 1.805209e-02 2.483684e-02 2.026755e-05 2.764175e-02 1.930348e-02 1.952320e-02 3.967205e-02 4.448504e-02 4.489987e-02 
    13.5                1.634150e-02 1.834817e-02 7.958463e-03 2.002579e-02 2.719949e-02 2.169468e-05 3.049233e-02 2.224499e-02 2.247079e-02 4.317470e-02 4.891329e-02 4.928680e-02 
    14.5                1.804799e-02 2.001115e-02 7.887991e-03 2.256328e-02 2.967217e-02 2.322154e-05 3.399663e-02 2.535295e-02 2.562028e-02 4.681354e-02 5.357244e-02 5.391767e-02 
    15.5                1.960089e-02 2.174153e-02 7.475809e-03 2.503262e-02 3.176516e-02 2.455737e-05 3.730526e-02 2.831011e-02 2.860741e-02 4.976745e-02 5.787930e-02 5.817416e-02 
    16.5                2.101060e-02 2.360746e-02 7.176330e-03 2.733367e-02 3.373911e-02 2.643214e-05 4.043132e-02 3.111263e-02 3.143155e-02 5.263947e-02 6.208145e-02 6.238616e-02 
    17.5                2.236679e-02 2.494567e-02 6.629094e-03 2.934154e-02 3.524696e-02 2.732952e-05 4.307875e-02 3.359461e-02 3.393515e-02 5.465920e-02 6.544043e-02 6.569176e-02 
    18.5                2.334696e-02 2.617293e-02 5.934991e-03 3.125941e-02 3.651155e-02 2.801086e-05 4.555379e-02 3.579022e-02 3.615306e-02 5.629963e-02 6.823077e-02 6.844389e-02 
    19.5                2.408255e-02 2.735413e-02 5.445647e-03 3.267989e-02 3.747514e-02 2.866375e-05 4.739404e-02 3.755104e-02 3.793605e-02 5.752865e-02 7.055601e-02 7.073781e-02 
    20.5                2.474960e-02 2.796308e-02 4.887925e-03 3.374328e-02 3.802014e-02 2.897639e-05 4.870044e-02 3.876092e-02 3.917146e-02 5.806710e-02 7.202888e-02 7.218285e-02 
    21.5                2.575881e-02 2.841824e-02 4.329612e-03 3.498771e-02 3.873779e-02 2.936493e-05 5.029323e-02 4.007748e-02 4.052411e-02 5.888124e-02 7.377368e-02 7.390607e-02 
    22.5                2.638595e-02 2.931951e-02 3.940797e-03 3.634433e-02 3.974221e-02 2.970816e-05 5.206509e-02 4.144339e-02 4.192737e-02 6.012437e-02 7.580918e-02 7.591497e-02 
    23.5                2.662491e-02 3.008844e-02 3.421584e-03 3.716410e-02 4.008434e-02 2.981020e-05 5.306322e-02 4.221109e-02 4.272696e-02 6.036473e-02 7.689926e-02 7.697731e-02 
    24.5                2.675059e-02 3.024528e-02 2.993496e-03 3.751685e-02 4.005519e-02 2.956286e-05 5.343476e-02 4.241781e-02 4.296472e-02 6.004276e-02 7.711653e-02 7.716954e-02 
    25.5                2.662539e-02 3.029131e-02 2.554536e-03 3.769169e-02 3.983914e-02 2.913821e-05 5.355680e-02 4.233061e-02 4.290421e-02 5.942498e-02 7.689539e-02 7.692715e-02 
    26.5                2.595092e-02 3.015089e-02 2.187246e-03 3.731816e-02 3.914655e-02 2.835051e-05 5.292641e-02 4.167349e-02 4.226023e-02 5.812030e-02 7.570776e-02 7.571995e-02 
    27.5                2.528703e-02 2.952214e-02 1.854538e-03 3.645053e-02 3.798811e-02 2.753130e-05 5.161533e-02 4.055074e-02 4.113960e-02 5.617400e-02 7.378096e-02 7.378057e-02 
    28.5                2.443205e-02 2.856603e-02 1.578785e-03 3.544796e-02 3.674970e-02 2.632384e-05 5.013239e-02 3.914114e-02 3.972815e-02 5.412449e-02 7.135392e-02 7.134360e-02 
    29.5                2.329399e-02 2.767327e-02 1.311055e-03 3.414719e-02 3.521906e-02 2.512773e-05 4.823823e-02 3.748327e-02 3.806303e-02 5.168186e-02 6.853168e-02 6.851357e-02 
    30.5                2.202628e-02 2.639951e-02 1.088974e-03 3.249995e-02 3.338541e-02 2.371677e-05 4.587199e-02 3.545235e-02 3.601410e-02 4.881066e-02 6.505982e-02 6.503611e-02 
    31.5                2.054437e-02 2.498934e-02 8.710229e-04 3.062595e-02 3.132828e-02 2.215806e-05 4.318861e-02 3.315618e-02 3.369421e-02 4.563496e-02 6.113059e-02 6.110269e-02 
    32.5                1.883829e-02 2.336929e-02 6.976136e-04 2.844685e-02 2.900657e-02 2.042135e-05 4.009280e-02 3.054302e-02 3.104889e-02 4.211142e-02 5.664138e-02 5.661192e-02 
    33.5                1.692105e-02 2.156676e-02 5.529202e-04 2.594327e-02 2.638388e-02 1.856411e-05 3.654812e-02 2.763994e-02 2.810397e-02 3.819806e-02 5.160211e-02 5.157362e-02 
    34.5                1.500384e-02 1.947362e-02 4.340520e-04 2.324399e-02 2.358872e-02 1.659124e-05 3.273618e-02 2.457032e-02 2.498767e-02 3.406456e-02 4.619284e-02 4.616619e-02 
    35.5                1.309509e-02 1.734651e-02 3.324571e-04 2.051828e-02 2.078140e-02 1.461649e-05 2.888943e-02 2.151338e-02 2.188381e-02 2.993421e-02 4.075282e-02 4.072869e-02 
    36.5                1.124358e-02 1.519356e-02 2.427855e-04 1.784062e-02 1.803239e-02 1.264449e-05 2.511465e-02 1.852509e-02 1.884626e-02 2.590817e-02 3.538029e-02 3.535865e-02 
    37.5                9.448369e-03 1.313424e-02 1.755923e-04 1.523562e-02 1.537521e-02 1.078260e-05 2.144547e-02 1.567062e-02 1.594554e-02 2.203903e-02 3.020074e-02 3.018151e-02 
    38.5                7.681535e-03 1.111461e-02 1.217527e-04 1.269760e-02 1.279513e-02 8.956350e-06 1.787226e-02 1.292457e-02 1.315116e-02 1.830219e-02 2.513645e-02 2.512012e-02 
    39.5                5.972072e-03 9.180917e-03 8.147671e-05 1.021932e-02 1.028537e-02 7.216115e-06 1.438482e-02 1.030214e-02 1.048084e-02 1.468527e-02 2.024249e-02 2.022922e-02 
    40.5                4.414783e-03 7.275312e-03 5.213022e-05 7.860098e-03 7.903483e-03 5.574943e-06 1.106548e-02 7.850363e-03 7.984818e-03 1.126566e-02 1.559496e-02 1.558463e-02 
    41.5                3.114893e-03 5.502525e-03 3.174817e-05 5.758148e-03 5.785488e-03 4.124141e-06 8.107692e-03 5.707126e-03 5.802014e-03 8.234681e-03 1.146702e-02 1.145946e-02 
    42.5                2.079655e-03 3.952091e-03 1.838059e-05 4.021074e-03 4.037711e-03 2.895210e-06 5.663202e-03 3.946133e-03 4.010439e-03 5.739684e-03 8.018350e-03 8.013074e-03 
    43.5                1.245911e-03 2.717975e-03 9.994954e-06 2.631530e-03 2.641212e-03 1.908708e-06 3.707326e-03 2.559091e-03 2.598950e-03 3.750548e-03 5.260874e-03 5.257391e-03 
    44.5                6.484125e-04 1.724545e-03 5.085230e-06 1.546826e-03 1.552116e-03 1.160496e-06 2.180064e-03 1.502432e-03 1.523443e-03 2.202242e-03 3.128678e-03 3.126611e-03 
    45.5                2.691870e-04 9.622126e-04 2.269007e-06 7.829379e-04 7.854830e-04 6.140404e-07 1.103995e-03 7.629387e-04 7.716962e-04 1.113796e-03 1.609324e-03 1.608254e-03 
    46.5                7.903734e-05 4.489863e-04 8.773060e-07 3.160947e-04 3.171371e-04 2.749110e-07 4.459749e-04 3.154017e-04 3.180550e-04 4.495432e-04 6.761163e-04 6.756677e-04 
    47.5                1.549108e-05 1.543819e-04 2.724799e-07 9.273391e-05 9.305482e-05 9.495140e-08 1.309217e-04 9.692319e-05 9.703625e-05 1.319043e-04 2.113627e-04 2.112284e-04 
    48.5                1.404765e-06 3.717809e-05 5.884029e-08 1.862540e-05 1.869416e-05 2.266756e-08 2.631748e-05 2.079617e-05 2.067223e-05 2.650006e-05 4.627214e-05 4.624426e-05 
    49.5                1.245258e-08 5.155725e-06 8.253867e-09 1.987368e-06 1.996216e-06 3.349022e-09 2.813579e-06 2.556121e-06 2.512289e-06 2.831876e-06 5.833392e-06 5.830352e-06 
    50.5                0.000000e+00 1.489641e-07 2.783627e-10 3.724755e-08 3.745139e-08 1.244207e-10 5.306309e-08 6.630842e-08 6.350103e-08 5.331039e-08 1.561466e-07 1.561089e-07 
    51.5                0.000000e+00 0.000000e+00 0.000000e+00 0.000000e+00 0.000000e+00 0.000000e+00 0.000000e+00 0.000000e+00 0.000000e+00 0.000000e+00 0.000000e+00 0.000000e+00 
    52.5                0.000000e+00 0.000000e+00 0.000000e+00 0.000000e+00 0.000000e+00 0.000000e+00 0.000000e+00 0.000000e+00 0.000000e+00 0.000000e+00 0.000000e+00 0.000000e+00 
    53.5                0.000000e+00 0.000000e+00 0.000000e+00 0.000000e+00 0.000000e+00 0.000000e+00 0.000000e+00 0.000000e+00 0.000000e+00 0.000000e+00 0.000000e+00 0.000000e+00 
    54.5                0.000000e+00 0.000000e+00 0.000000e+00 0.000000e+00 0.000000e+00 0.000000e+00 0.000000e+00 0.000000e+00 0.000000e+00 0.000000e+00 0.000000e+00 0.000000e+00 
    55.5                0.000000e+00 0.000000e+00 0.000000e+00 0.000000e+00 0.000000e+00 0.000000e+00 0.000000e+00 0.000000e+00 0.000000e+00 0.000000e+00 0.000000e+00 0.000000e+00 
    56.5                0.000000e+00 0.000000e+00 0.000000e+00 0.000000e+00 0.000000e+00 0.000000e+00 0.000000e+00 0.000000e+00 0.000000e+00 0.000000e+00 0.000000e+00 0.000000e+00 
    57.5                0.000000e+00 0.000000e+00 0.000000e+00 0.000000e+00 0.000000e+00 0.000000e+00 0.000000e+00 0.000000e+00 0.000000e+00 0.000000e+00 0.000000e+00 0.000000e+00 
    58.5                0.000000e+00 0.000000e+00 0.000000e+00 0.000000e+00 0.000000e+00 0.000000e+00 0.000000e+00 0.000000e+00 0.000000e+00 0.000000e+00 0.000000e+00 0.000000e+00 
    59.5                0.000000e+00 0.000000e+00 0.000000e+00 0.000000e+00 0.000000e+00 0.000000e+00 0.000000e+00 0.000000e+00 0.000000e+00 0.000000e+00 0.000000e+00 0.000000e+00 
    60.5                0.000000e+00 0.000000e+00 0.000000e+00 0.000000e+00 0.000000e+00 0.000000e+00 0.000000e+00 0.000000e+00 0.000000e+00 0.000000e+00 0.000000e+00 0.000000e+00 
    61.5                0.000000e+00 0.000000e+00 0.000000e+00 0.000000e+00 0.000000e+00 0.000000e+00 0.000000e+00 0.000000e+00 0.000000e+00 0.000000e+00 0.000000e+00 0.000000e+00 
    62.5                0.000000e+00 0.000000e+00 0.000000e+00 0.000000e+00 0.000000e+00 0.000000e+00 0.000000e+00 0.000000e+00 0.000000e+00 0.000000e+00 0.000000e+00 0.000000e+00 
    63.5                0.000000e+00 0.000000e+00 0.000000e+00 0.000000e+00 0.000000e+00 0.000000e+00 0.000000e+00 0.000000e+00 0.000000e+00 0.000000e+00 0.000000e+00 0.000000e+00 
    64.5                0.000000e+00 0.000000e+00 0.000000e+00 0.000000e+00 0.000000e+00 0.000000e+00 0.000000e+00 0.000000e+00 0.000000e+00 0.000000e+00 0.000000e+00 0.000000e+00 
    65.5                0.000000e+00 0.000000e+00 0.000000e+00 0.000000e+00 0.000000e+00 0.000000e+00 0.000000e+00 0.000000e+00 0.000000e+00 0.000000e+00 0.000000e+00 0.000000e+00 
    66.5                0.000000e+00 0.000000e+00 0.000000e+00 0.000000e+00 0.000000e+00 0.000000e+00 0.000000e+00 0.000000e+00 0.000000e+00 0.000000e+00 0.000000e+00 0.000000e+00 
    67.5                0.000000e+00 0.000000e+00 0.000000e+00 0.000000e+00 0.000000e+00 0.000000e+00 0.000000e+00 0.000000e+00 0.000000e+00 0.000000e+00 0.000000e+00 0.000000e+00 
    68.5                0.000000e+00 0.000000e+00 0.000000e+00 0.000000e+00 0.000000e+00 0.000000e+00 0.000000e+00 0.000000e+00 0.000000e+00 0.000000e+00 0.000000e+00 0.000000e+00 
    69.5                0.000000e+00 0.000000e+00 0.000000e+00 0.000000e+00 0.000000e+00 0.000000e+00 0.000000e+00 0.000000e+00 0.000000e+00 0.000000e+00 0.000000e+00 0.000000e+00 
    70.5                0.000000e+00 0.000000e+00 0.000000e+00 0.000000e+00 0.000000e+00 0.000000e+00 0.000000e+00 0.000000e+00 0.000000e+00 0.000000e+00 0.000000e+00 0.000000e+00 
    71.5                0.000000e+00 0.000000e+00 0.000000e+00 0.000000e+00 0.000000e+00 0.000000e+00 0.000000e+00 0.000000e+00 0.000000e+00 0.000000e+00 0.000000e+00 0.000000e+00 
    72.5                0.000000e+00 0.000000e+00 0.000000e+00 0.000000e+00 0.000000e+00 0.000000e+00 0.000000e+00 0.000000e+00 0.000000e+00 0.000000e+00 0.000000e+00 0.000000e+00 
    73.5                0.000000e+00 0.000000e+00 0.000000e+00 0.000000e+00 0.000000e+00 0.000000e+00 0.000000e+00 0.000000e+00 0.000000e+00 0.000000e+00 0.000000e+00 0.000000e+00 
    74.5                0.000000e+00 0.000000e+00 0.000000e+00 0.000000e+00 0.000000e+00 0.000000e+00 0.000000e+00 0.000000e+00 0.000000e+00 0.000000e+00 0.000000e+00 0.000000e+00 
    75.5                0.000000e+00 0.000000e+00 0.000000e+00 0.000000e+00 0.000000e+00 0.000000e+00 0.000000e+00 0.000000e+00 0.000000e+00 0.000000e+00 0.000000e+00 0.000000e+00 
    76.5                0.000000e+00 0.000000e+00 0.000000e+00 0.000000e+00 0.000000e+00 0.000000e+00 0.000000e+00 0.000000e+00 0.000000e+00 0.000000e+00 0.000000e+00 0.000000e+00 
    77.5                0.000000e+00 0.000000e+00 0.000000e+00 0.000000e+00 0.000000e+00 0.000000e+00 0.000000e+00 0.000000e+00 0.000000e+00 0.000000e+00 0.000000e+00 0.000000e+00 
    78.5                0.000000e+00 0.000000e+00 0.000000e+00 0.000000e+00 0.000000e+00 0.000000e+00 0.000000e+00 0.000000e+00 0.000000e+00 0.000000e+00 0.000000e+00 0.000000e+00 
    79.5                0.000000e+00 0.000000e+00 0.000000e+00 0.000000e+00 0.000000e+00 0.000000e+00 0.000000e+00 0.000000e+00 0.000000e+00 0.000000e+00 0.000000e+00 0.000000e+00 


