# 80 rows of flux data
# 12 columns of flux data
# 
# total cross-sectional flux  2.177314e+00 /m^2/yr
#
#                       +x vernal eq.           -x           +y           -y +z eclip. N. -z eclip. S.        Earth          Sun     anti-Sun      rot (x)      rot (y)      rot (z) 
# average speed (km/s)         23.94        24.56        24.18        24.31        19.36        21.58        24.44        24.65        24.66        23.62        23.63        24.25 
# total flux (#/m2/yr)  6.491141e-01 6.775630e-01 6.606296e-01 6.665186e-01 2.929674e-01 1.439932e-01 1.248864e+00 9.441371e-01 9.572979e-01 1.480532e+00 1.480160e+00 2.084300e+00 
# velocity (km/s)
     0.5                0.000000e+00 0.000000e+00 0.000000e+00 0.000000e+00 0.000000e+00 0.000000e+00 0.000000e+00 0.000000e+00 0.000000e+00 0.000000e+00 0.000000e+00 0.000000e+00 
     1.5                0.000000e+00 0.000000e+00 0.000000e+00 0.000000e+00 0.000000e+00 0.000000e+00 0.000000e+00 0.000000e+00 0.000000e+00 0.000000e+00 0.000000e+00 0.000000e+00 
     2.5                6.321156e-07 9.752459e-07 2.839530e-06 2.796194e-06 1.698626e-06 4.169495e-08 1.937862e-06 2.397047e-07 1.684996e-06 5.983161e-06 2.556586e-06 6.018748e-06 
     3.5                6.990292e-05 4.596843e-05 6.083180e-05 6.026151e-05 4.554426e-05 7.514497e-06 9.698789e-05 2.560922e-05 5.625656e-05 1.404777e-04 1.366903e-04 1.863662e-04 
     4.5                4.429698e-04 2.192588e-04 3.407929e-04 3.266495e-04 2.615737e-04 7.221899e-05 5.776791e-04 1.858188e-04 2.937078e-04 8.045605e-04 7.971948e-04 1.042407e-03 
     5.5                1.275443e-03 8.121592e-04 1.102267e-03 1.055315e-03 9.206722e-04 2.943926e-04 1.942140e-03 7.614955e-04 9.706102e-04 2.675176e-03 2.615748e-03 3.335119e-03 
     6.5                2.714224e-03 2.074379e-03 2.459345e-03 2.352004e-03 2.119048e-03 7.302057e-04 4.336493e-03 1.939458e-03 2.209910e-03 6.045658e-03 6.017168e-03 7.540494e-03 
     7.5                4.609034e-03 3.959953e-03 4.338580e-03 4.238954e-03 3.934936e-03 1.316965e-03 7.656034e-03 3.773593e-03 4.010416e-03 1.088102e-02 1.089288e-02 1.346024e-02 
     8.5                7.092087e-03 6.484063e-03 6.853514e-03 6.749802e-03 6.080601e-03 2.156881e-03 1.234335e-02 6.375504e-03 6.472686e-03 1.717985e-02 1.716740e-02 2.134540e-02 
     9.5                9.734855e-03 9.119359e-03 9.496856e-03 9.374295e-03 8.514872e-03 3.043642e-03 1.718006e-02 9.476348e-03 9.473291e-03 2.391497e-02 2.392649e-02 2.962874e-02 
    10.5                1.220145e-02 1.167656e-02 1.198993e-02 1.188850e-02 1.125320e-02 3.840661e-03 2.128825e-02 1.291274e-02 1.297780e-02 3.061334e-02 3.060299e-02 3.751197e-02 
    11.5                1.416622e-02 1.374498e-02 1.401102e-02 1.391589e-02 1.350169e-02 4.430551e-03 2.494318e-02 1.627489e-02 1.645812e-02 3.607305e-02 3.606237e-02 4.386527e-02 
    12.5                1.558914e-02 1.551053e-02 1.557452e-02 1.554319e-02 1.490897e-02 4.769499e-03 2.764175e-02 1.930348e-02 1.952320e-02 4.007503e-02 4.008051e-02 4.886714e-02 
    13.5                1.730001e-02 1.691027e-02 1.714011e-02 1.705781e-02 1.581201e-02 5.140681e-03 3.049233e-02 2.224499e-02 2.247079e-02 4.369506e-02 4.370082e-02 5.372375e-02 
    14.5                1.904492e-02 1.855425e-02 1.890076e-02 1.879335e-02 1.617999e-02 5.606631e-03 3.399663e-02 2.535295e-02 2.562028e-02 4.733003e-02 4.724159e-02 5.913623e-02 
    15.5                2.056855e-02 2.027066e-02 2.049904e-02 2.043260e-02 1.600043e-02 5.987505e-03 3.730526e-02 2.831011e-02 2.860741e-02 5.033161e-02 5.023638e-02 6.422939e-02 
    16.5                2.216197e-02 2.189458e-02 2.208417e-02 2.201719e-02 1.587262e-02 6.305260e-03 4.043132e-02 3.111263e-02 3.143155e-02 5.327910e-02 5.324896e-02 6.923727e-02 
    17.5                2.334284e-02 2.333412e-02 2.335377e-02 2.333985e-02 1.532911e-02 6.504371e-03 4.307875e-02 3.359461e-02 3.393515e-02 5.537348e-02 5.535675e-02 7.332748e-02 
    18.5                2.434160e-02 2.452971e-02 2.448519e-02 2.450994e-02 1.454536e-02 6.675035e-03 4.555379e-02 3.579022e-02 3.615306e-02 5.704929e-02 5.692995e-02 7.686364e-02 
    19.5                2.512842e-02 2.561613e-02 2.533910e-02 2.541828e-02 1.395179e-02 6.751657e-03 4.739404e-02 3.755104e-02 3.793605e-02 5.833934e-02 5.833137e-02 7.971566e-02 
    20.5                2.573085e-02 2.625476e-02 2.592218e-02 2.601119e-02 1.313004e-02 6.692042e-03 4.870044e-02 3.876092e-02 3.917146e-02 5.892160e-02 5.896936e-02 8.161379e-02 
    21.5                2.657974e-02 2.683390e-02 2.669422e-02 2.673648e-02 1.230950e-02 6.639407e-03 5.029323e-02 4.007748e-02 4.052411e-02 5.978327e-02 5.976208e-02 8.391201e-02 
    22.5                2.730691e-02 2.767724e-02 2.749035e-02 2.755006e-02 1.179015e-02 6.644748e-03 5.206509e-02 4.144339e-02 4.192737e-02 6.100835e-02 6.095784e-02 8.641350e-02 
    23.5                2.762146e-02 2.831388e-02 2.790629e-02 2.803348e-02 1.097753e-02 6.537732e-03 5.306322e-02 4.221109e-02 4.272696e-02 6.131144e-02 6.130876e-02 8.786741e-02 
    24.5                2.774456e-02 2.844393e-02 2.804092e-02 2.816855e-02 1.017463e-02 6.307610e-03 5.343476e-02 4.241781e-02 4.296472e-02 6.103145e-02 6.101360e-02 8.827646e-02 
    25.5                2.761999e-02 2.850498e-02 2.799976e-02 2.816822e-02 9.294913e-03 6.014320e-03 5.355680e-02 4.233061e-02 4.290421e-02 6.042012e-02 6.037648e-02 8.819513e-02 
    26.5                2.707894e-02 2.826897e-02 2.756541e-02 2.779441e-02 8.436986e-03 5.641069e-03 5.292641e-02 4.167349e-02 4.226023e-02 5.908419e-02 5.907515e-02 8.694894e-02 
    27.5                2.632141e-02 2.765722e-02 2.686312e-02 2.712596e-02 7.590703e-03 5.234670e-03 5.161533e-02 4.055074e-02 4.113960e-02 5.722536e-02 5.721517e-02 8.479755e-02 
    28.5                2.547362e-02 2.679067e-02 2.600800e-02 2.626966e-02 6.808367e-03 4.812394e-03 5.013239e-02 3.914114e-02 3.972815e-02 5.508094e-02 5.506730e-02 8.210739e-02 
    29.5                2.438196e-02 2.585839e-02 2.497749e-02 2.527142e-02 6.035317e-03 4.389604e-03 4.823823e-02 3.748327e-02 3.806303e-02 5.263885e-02 5.262962e-02 7.892414e-02 
    30.5                2.304865e-02 2.468491e-02 2.369996e-02 2.403167e-02 5.285936e-03 3.927186e-03 4.587199e-02 3.545235e-02 3.601410e-02 4.973339e-02 4.973521e-02 7.497800e-02 
    31.5                2.160386e-02 2.327141e-02 2.227644e-02 2.261474e-02 4.529199e-03 3.451839e-03 4.318861e-02 3.315618e-02 3.369421e-02 4.652345e-02 4.650896e-02 7.050241e-02 
    32.5                1.989229e-02 2.171901e-02 2.062117e-02 2.099675e-02 3.833666e-03 2.977290e-03 4.009280e-02 3.054302e-02 3.104889e-02 4.293299e-02 4.292416e-02 6.536750e-02 
    33.5                1.798441e-02 1.993616e-02 1.876333e-02 1.916613e-02 3.211327e-03 2.538775e-03 3.654812e-02 2.763994e-02 2.810397e-02 3.897927e-02 3.897010e-02 5.957236e-02 
    34.5                1.596968e-02 1.799200e-02 1.676807e-02 1.718857e-02 2.646276e-03 2.122635e-03 3.273618e-02 2.457032e-02 2.498767e-02 3.478177e-02 3.478557e-02 5.334311e-02 
    35.5                1.402855e-02 1.594293e-02 1.478206e-02 1.518107e-02 2.123132e-03 1.725950e-03 2.888943e-02 2.151338e-02 2.188381e-02 3.058879e-02 3.059612e-02 4.707247e-02 
    36.5                1.206425e-02 1.397735e-02 1.280586e-02 1.320885e-02 1.651544e-03 1.365177e-03 2.511465e-02 1.852509e-02 1.884626e-02 2.647009e-02 2.649493e-02 4.088451e-02 
    37.5                1.019429e-02 1.202553e-02 1.091946e-02 1.130456e-02 1.259754e-03 1.054917e-03 2.144547e-02 1.567062e-02 1.594554e-02 2.254730e-02 2.254190e-02 3.490596e-02 
    38.5                8.376489e-03 1.013448e-02 9.060832e-03 9.432977e-03 9.318502e-04 7.919254e-04 1.787226e-02 1.292457e-02 1.315116e-02 1.871483e-02 1.873088e-02 2.906341e-02 
    39.5                6.591711e-03 8.312489e-03 7.265288e-03 7.630136e-03 6.611926e-04 5.692792e-04 1.438482e-02 1.030214e-02 1.048084e-02 1.503897e-02 1.504674e-02 2.340414e-02 
    40.5                4.945959e-03 6.540524e-03 5.563424e-03 5.902667e-03 4.443108e-04 3.865407e-04 1.106548e-02 7.850363e-03 7.984818e-03 1.155382e-02 1.157314e-02 1.802669e-02 
    41.5                3.536954e-03 4.911028e-03 4.062191e-03 4.355936e-03 2.808390e-04 2.464016e-04 8.107692e-03 5.707126e-03 5.802014e-03 8.467991e-03 8.496987e-03 1.324651e-02 
    42.5                2.396785e-03 3.514309e-03 2.820621e-03 3.060067e-03 1.659667e-04 1.464558e-04 5.663202e-03 3.946133e-03 4.010439e-03 5.907010e-03 5.936622e-03 9.261062e-03 
    43.5                1.491819e-03 2.385828e-03 1.831953e-03 2.023752e-03 9.066925e-05 8.031322e-05 3.707326e-03 2.559091e-03 2.598950e-03 3.868442e-03 3.889850e-03 6.073567e-03 
    44.5                8.152739e-04 1.493023e-03 1.067452e-03 1.213231e-03 4.401254e-05 3.891787e-05 2.180064e-03 1.502432e-03 1.523443e-03 2.286038e-03 2.313354e-03 3.604041e-03 
    45.5                3.701323e-04 8.207527e-04 5.325761e-04 6.299146e-04 1.800670e-05 1.583821e-05 1.103995e-03 7.629387e-04 7.716962e-04 1.164365e-03 1.192565e-03 1.848244e-03 
    46.5                1.252540e-04 3.755566e-04 2.132330e-04 2.674623e-04 5.892175e-06 5.114127e-06 4.459749e-04 3.154017e-04 3.180550e-04 4.812161e-04 5.012583e-04 7.708112e-04 
    47.5                2.954662e-05 1.285867e-04 6.172615e-05 8.356169e-05 1.383055e-06 1.166232e-06 1.309217e-04 9.692319e-05 9.703625e-05 1.453959e-04 1.582107e-04 2.383277e-04 
    48.5                4.326677e-06 3.077095e-05 1.224807e-05 1.813813e-05 2.061940e-07 1.658591e-07 2.631748e-05 2.079617e-05 2.067223e-05 3.039755e-05 3.510486e-05 5.143382e-05 
    49.5                1.489126e-07 4.390548e-06 1.274288e-06 2.240118e-06 1.665751e-08 1.201424e-08 2.813579e-06 2.556121e-06 2.512289e-06 3.515066e-06 4.539750e-06 6.323394e-06 
    50.5                0.000000e+00 1.312173e-07 2.159275e-08 5.397490e-08 2.067283e-10 8.875001e-11 5.306309e-08 6.630842e-08 6.350103e-08 7.557122e-08 1.312179e-07 1.626065e-07 
    51.5                0.000000e+00 0.000000e+00 0.000000e+00 0.000000e+00 0.000000e+00 0.000000e+00 0.000000e+00 0.000000e+00 0.000000e+00 0.000000e+00 0.000000e+00 0.000000e+00 
    52.5                0.000000e+00 0.000000e+00 0.000000e+00 0.000000e+00 0.000000e+00 0.000000e+00 0.000000e+00 0.000000e+00 0.000000e+00 0.000000e+00 0.000000e+00 0.000000e+00 
    53.5                0.000000e+00 0.000000e+00 0.000000e+00 0.000000e+00 0.000000e+00 0.000000e+00 0.000000e+00 0.000000e+00 0.000000e+00 0.000000e+00 0.000000e+00 0.000000e+00 
    54.5                0.000000e+00 0.000000e+00 0.000000e+00 0.000000e+00 0.000000e+00 0.000000e+00 0.000000e+00 0.000000e+00 0.000000e+00 0.000000e+00 0.000000e+00 0.000000e+00 
    55.5                0.000000e+00 0.000000e+00 0.000000e+00 0.000000e+00 0.000000e+00 0.000000e+00 0.000000e+00 0.000000e+00 0.000000e+00 0.000000e+00 0.000000e+00 0.000000e+00 
    56.5                0.000000e+00 0.000000e+00 0.000000e+00 0.000000e+00 0.000000e+00 0.000000e+00 0.000000e+00 0.000000e+00 0.000000e+00 0.000000e+00 0.000000e+00 0.000000e+00 
    57.5                0.000000e+00 0.000000e+00 0.000000e+00 0.000000e+00 0.000000e+00 0.000000e+00 0.000000e+00 0.000000e+00 0.000000e+00 0.000000e+00 0.000000e+00 0.000000e+00 
    58.5                0.000000e+00 0.000000e+00 0.000000e+00 0.000000e+00 0.000000e+00 0.000000e+00 0.000000e+00 0.000000e+00 0.000000e+00 0.000000e+00 0.000000e+00 0.000000e+00 
    59.5                0.000000e+00 0.000000e+00 0.000000e+00 0.000000e+00 0.000000e+00 0.000000e+00 0.000000e+00 0.000000e+00 0.000000e+00 0.000000e+00 0.000000e+00 0.000000e+00 
    60.5                0.000000e+00 0.000000e+00 0.000000e+00 0.000000e+00 0.000000e+00 0.000000e+00 0.000000e+00 0.000000e+00 0.000000e+00 0.000000e+00 0.000000e+00 0.000000e+00 
    61.5                0.000000e+00 0.000000e+00 0.000000e+00 0.000000e+00 0.000000e+00 0.000000e+00 0.000000e+00 0.000000e+00 0.000000e+00 0.000000e+00 0.000000e+00 0.000000e+00 
    62.5                0.000000e+00 0.000000e+00 0.000000e+00 0.000000e+00 0.000000e+00 0.000000e+00 0.000000e+00 0.000000e+00 0.000000e+00 0.000000e+00 0.000000e+00 0.000000e+00 
    63.5                0.000000e+00 0.000000e+00 0.000000e+00 0.000000e+00 0.000000e+00 0.000000e+00 0.000000e+00 0.000000e+00 0.000000e+00 0.000000e+00 0.000000e+00 0.000000e+00 
    64.5                0.000000e+00 0.000000e+00 0.000000e+00 0.000000e+00 0.000000e+00 0.000000e+00 0.000000e+00 0.000000e+00 0.000000e+00 0.000000e+00 0.000000e+00 0.000000e+00 
    65.5                0.000000e+00 0.000000e+00 0.000000e+00 0.000000e+00 0.000000e+00 0.000000e+00 0.000000e+00 0.000000e+00 0.000000e+00 0.000000e+00 0.000000e+00 0.000000e+00 
    66.5                0.000000e+00 0.000000e+00 0.000000e+00 0.000000e+00 0.000000e+00 0.000000e+00 0.000000e+00 0.000000e+00 0.000000e+00 0.000000e+00 0.000000e+00 0.000000e+00 
    67.5                0.000000e+00 0.000000e+00 0.000000e+00 0.000000e+00 0.000000e+00 0.000000e+00 0.000000e+00 0.000000e+00 0.000000e+00 0.000000e+00 0.000000e+00 0.000000e+00 
    68.5                0.000000e+00 0.000000e+00 0.000000e+00 0.000000e+00 0.000000e+00 0.000000e+00 0.000000e+00 0.000000e+00 0.000000e+00 0.000000e+00 0.000000e+00 0.000000e+00 
    69.5                0.000000e+00 0.000000e+00 0.000000e+00 0.000000e+00 0.000000e+00 0.000000e+00 0.000000e+00 0.000000e+00 0.000000e+00 0.000000e+00 0.000000e+00 0.000000e+00 
    70.5                0.000000e+00 0.000000e+00 0.000000e+00 0.000000e+00 0.000000e+00 0.000000e+00 0.000000e+00 0.000000e+00 0.000000e+00 0.000000e+00 0.000000e+00 0.000000e+00 
    71.5                0.000000e+00 0.000000e+00 0.000000e+00 0.000000e+00 0.000000e+00 0.000000e+00 0.000000e+00 0.000000e+00 0.000000e+00 0.000000e+00 0.000000e+00 0.000000e+00 
    72.5                0.000000e+00 0.000000e+00 0.000000e+00 0.000000e+00 0.000000e+00 0.000000e+00 0.000000e+00 0.000000e+00 0.000000e+00 0.000000e+00 0.000000e+00 0.000000e+00 
    73.5                0.000000e+00 0.000000e+00 0.000000e+00 0.000000e+00 0.000000e+00 0.000000e+00 0.000000e+00 0.000000e+00 0.000000e+00 0.000000e+00 0.000000e+00 0.000000e+00 
    74.5                0.000000e+00 0.000000e+00 0.000000e+00 0.000000e+00 0.000000e+00 0.000000e+00 0.000000e+00 0.000000e+00 0.000000e+00 0.000000e+00 0.000000e+00 0.000000e+00 
    75.5                0.000000e+00 0.000000e+00 0.000000e+00 0.000000e+00 0.000000e+00 0.000000e+00 0.000000e+00 0.000000e+00 0.000000e+00 0.000000e+00 0.000000e+00 0.000000e+00 
    76.5                0.000000e+00 0.000000e+00 0.000000e+00 0.000000e+00 0.000000e+00 0.000000e+00 0.000000e+00 0.000000e+00 0.000000e+00 0.000000e+00 0.000000e+00 0.000000e+00 
    77.5                0.000000e+00 0.000000e+00 0.000000e+00 0.000000e+00 0.000000e+00 0.000000e+00 0.000000e+00 0.000000e+00 0.000000e+00 0.000000e+00 0.000000e+00 0.000000e+00 
    78.5                0.000000e+00 0.000000e+00 0.000000e+00 0.000000e+00 0.000000e+00 0.000000e+00 0.000000e+00 0.000000e+00 0.000000e+00 0.000000e+00 0.000000e+00 0.000000e+00 
    79.5                0.000000e+00 0.000000e+00 0.000000e+00 0.000000e+00 0.000000e+00 0.000000e+00 0.000000e+00 0.000000e+00 0.000000e+00 0.000000e+00 0.000000e+00 0.000000e+00 


