# 80 rows of flux data
# 12 columns of flux data
# 
# total cross-sectional flux  1.079631e+00 /m^2/yr
#
#                             +x ram      -x wake      +y port -y starboard    +z zenith     -z nadir        Earth          Sun     anti-Sun      rot (x)      rot (y)      rot (z) 
# average speed (km/s)         37.58        37.58        41.92        29.01        33.30        39.52        37.63        27.82        27.82        33.88        35.31        35.60 
# total flux (#/m2/yr)  2.435513e-01 2.433417e-01 2.104940e-01 3.489697e-01 5.633607e-01 3.281823e-04 2.428382e-01 1.782690e-01 1.782896e-01 8.963928e-01 8.243358e-01 8.179880e-01 
# velocity (km/s)
     0.5                0.000000e+00 0.000000e+00 0.000000e+00 0.000000e+00 0.000000e+00 0.000000e+00 0.000000e+00 0.000000e+00 0.000000e+00 0.000000e+00 0.000000e+00 0.000000e+00 
     1.5                0.000000e+00 0.000000e+00 0.000000e+00 0.000000e+00 0.000000e+00 0.000000e+00 0.000000e+00 0.000000e+00 0.000000e+00 0.000000e+00 0.000000e+00 0.000000e+00 
     2.5                8.979143e-05 9.038592e-05 4.255316e-05 1.084376e-04 1.199239e-04 8.462516e-08 8.935426e-05 7.580155e-05 7.597441e-05 2.130797e-04 2.348321e-04 2.601579e-04 
     3.5                4.398686e-04 4.402937e-04 3.540839e-04 4.249399e-04 7.027048e-04 4.124040e-07 4.376709e-04 4.038173e-04 4.036673e-04 1.161534e-03 1.237031e-03 1.298429e-03 
     4.5                9.575204e-04 9.570021e-04 9.956333e-04 8.405465e-04 1.742062e-03 9.792313e-07 9.524888e-04 9.817967e-04 9.819797e-04 2.816788e-03 2.861535e-03 2.940702e-03 
     5.5                1.520040e-03 1.518248e-03 1.666369e-03 1.402977e-03 2.966830e-03 1.738668e-06 1.511140e-03 1.697568e-03 1.697803e-03 4.772218e-03 4.702049e-03 4.788123e-03 
     6.5                2.084159e-03 2.081047e-03 2.266600e-03 2.125131e-03 4.375618e-03 2.441393e-06 2.071207e-03 2.441314e-03 2.441748e-03 6.935218e-03 6.700679e-03 6.711290e-03 
     7.5                2.578925e-03 2.576019e-03 2.709588e-03 2.990264e-03 5.737970e-03 3.047799e-06 2.562458e-03 3.102188e-03 3.102604e-03 9.037823e-03 8.545493e-03 8.510997e-03 
     8.5                2.996456e-03 2.992235e-03 3.029699e-03 3.818538e-03 7.031401e-03 3.642320e-06 2.977040e-03 3.671414e-03 3.672254e-03 1.096381e-02 1.023314e-02 1.006845e-02 
     9.5                3.384543e-03 3.380254e-03 3.269374e-03 4.698615e-03 8.223762e-03 4.067711e-06 3.362163e-03 4.193514e-03 4.194426e-03 1.275928e-02 1.177986e-02 1.155434e-02 
    10.5                3.666198e-03 3.660980e-03 3.370192e-03 5.584876e-03 9.300537e-03 4.344523e-06 3.641504e-03 4.625957e-03 4.627026e-03 1.435817e-02 1.307672e-02 1.276557e-02 
    11.5                3.997183e-03 3.992342e-03 3.502813e-03 6.654808e-03 1.059302e-02 4.670380e-06 3.969742e-03 5.144955e-03 5.145767e-03 1.627859e-02 1.463591e-02 1.424754e-02 
    12.5                4.205958e-03 4.200062e-03 3.511378e-03 7.474133e-03 1.155340e-02 4.748321e-06 4.176247e-03 5.499955e-03 5.500963e-03 1.764979e-02 1.570637e-02 1.521127e-02 
    13.5                4.275240e-03 4.269797e-03 3.418183e-03 8.142884e-03 1.238640e-02 4.806009e-06 4.246120e-03 5.626731e-03 5.627867e-03 1.868933e-02 1.653080e-02 1.579442e-02 
    14.5                4.287816e-03 4.283068e-03 3.285946e-03 8.742608e-03 1.262553e-02 4.646579e-06 4.258958e-03 5.660286e-03 5.661125e-03 1.918208e-02 1.673663e-02 1.620796e-02 
    15.5                4.387929e-03 4.381936e-03 3.148436e-03 9.497366e-03 1.347446e-02 4.598545e-06 4.358662e-03 5.736038e-03 5.737358e-03 2.026440e-02 1.758439e-02 1.683976e-02 
    16.5                4.366179e-03 4.360312e-03 3.047905e-03 9.774190e-03 1.358081e-02 4.602926e-06 4.337341e-03 5.734877e-03 5.736034e-03 2.047728e-02 1.764558e-02 1.695774e-02 
    17.5                4.389987e-03 4.383873e-03 2.970956e-03 1.012772e-02 1.386504e-02 4.597070e-06 4.361173e-03 5.715760e-03 5.716809e-03 2.089719e-02 1.790544e-02 1.721393e-02 
    18.5                4.388271e-03 4.383335e-03 2.811080e-03 1.053139e-02 1.409762e-02 4.462525e-06 4.360242e-03 5.642266e-03 5.643032e-03 2.123378e-02 1.807950e-02 1.739600e-02 
    19.5                4.385223e-03 4.379563e-03 2.693890e-03 1.068589e-02 1.409406e-02 4.339098e-06 4.356886e-03 5.535482e-03 5.536740e-03 2.127277e-02 1.804364e-02 1.739935e-02 
    20.5                4.282831e-03 4.277101e-03 2.604110e-03 1.060674e-02 1.388432e-02 4.262751e-06 4.255749e-03 5.327529e-03 5.328556e-03 2.100713e-02 1.769174e-02 1.709275e-02 
    21.5                4.220018e-03 4.216193e-03 2.360586e-03 1.080452e-02 1.375983e-02 4.251259e-06 4.194831e-03 5.131176e-03 5.132022e-03 2.086597e-02 1.749503e-02 1.695741e-02 
    22.5                4.252780e-03 4.247034e-03 2.321136e-03 1.096824e-02 1.399894e-02 4.091702e-06 4.228020e-03 5.031133e-03 5.032036e-03 2.115187e-02 1.770878e-02 1.708448e-02 
    23.5                4.009291e-03 4.003886e-03 2.150635e-03 1.038025e-02 1.322745e-02 4.050602e-06 3.986060e-03 4.700976e-03 4.701934e-03 2.000420e-02 1.671214e-02 1.609199e-02 
    24.5                3.857463e-03 3.853390e-03 1.986091e-03 1.005810e-02 1.255219e-02 3.637277e-06 3.835583e-03 4.415393e-03 4.416190e-03 1.911666e-02 1.589902e-02 1.545216e-02 
    25.5                3.733523e-03 3.728445e-03 1.833310e-03 9.799433e-03 1.224481e-02 3.483495e-06 3.712003e-03 4.149872e-03 4.150544e-03 1.857595e-02 1.544963e-02 1.491382e-02 
    26.5                3.661146e-03 3.657355e-03 1.759417e-03 9.546593e-03 1.169303e-02 3.424238e-06 3.640618e-03 3.941455e-03 3.942296e-03 1.792591e-02 1.485744e-02 1.452051e-02 
    27.5                3.561191e-03 3.557456e-03 1.653083e-03 9.122768e-03 1.126817e-02 3.243489e-06 3.541275e-03 3.731601e-03 3.731925e-03 1.723619e-02 1.433783e-02 1.390637e-02 
    28.5                3.426732e-03 3.422423e-03 1.546735e-03 8.807338e-03 1.069228e-02 3.276272e-06 3.408547e-03 3.471091e-03 3.472043e-03 1.652034e-02 1.365338e-02 1.336006e-02 
    29.5                3.247990e-03 3.244916e-03 1.419161e-03 8.256351e-03 1.016610e-02 3.244842e-06 3.231475e-03 3.139738e-03 3.140138e-03 1.560782e-02 1.295796e-02 1.254285e-02 
    30.5                3.058667e-03 3.055563e-03 1.294891e-03 7.982468e-03 9.551577e-03 2.983988e-06 3.044104e-03 2.895486e-03 2.895861e-03 1.482197e-02 1.217525e-02 1.194543e-02 
    31.5                3.012521e-03 3.009529e-03 1.197299e-03 7.805996e-03 9.172687e-03 2.952459e-06 2.998766e-03 2.729570e-03 2.730062e-03 1.436032e-02 1.176905e-02 1.162313e-02 
    32.5                2.887727e-03 2.883178e-03 1.127473e-03 7.270919e-03 8.635995e-03 3.105521e-06 2.875008e-03 2.495861e-03 2.496240e-03 1.355522e-02 1.115158e-02 1.095320e-02 
    33.5                2.880326e-03 2.878014e-03 1.118657e-03 7.110728e-03 8.240426e-03 3.302775e-06 2.869337e-03 2.299830e-03 2.300060e-03 1.318321e-02 1.080283e-02 1.080417e-02 
    34.5                2.921480e-03 2.919503e-03 1.114327e-03 7.113706e-03 8.307932e-03 3.685269e-06 2.910946e-03 2.199666e-03 2.200035e-03 1.327638e-02 1.091014e-02 1.084863e-02 
    35.5                2.797326e-03 2.793067e-03 1.109090e-03 6.483616e-03 7.665689e-03 3.868787e-06 2.787317e-03 2.062129e-03 2.062472e-03 1.236696e-02 1.022106e-02 1.016378e-02 
    36.5                2.808707e-03 2.806201e-03 1.158351e-03 6.419260e-03 7.371542e-03 4.313229e-06 2.800485e-03 1.942171e-03 1.942469e-03 1.217915e-02 9.992776e-03 1.018872e-02 
    37.5                2.858150e-03 2.856101e-03 1.226358e-03 6.317658e-03 7.496875e-03 5.046786e-06 2.849946e-03 1.868220e-03 1.868359e-03 1.230109e-02 1.019176e-02 1.022319e-02 
    38.5                2.922732e-03 2.920574e-03 1.312505e-03 6.196216e-03 7.144872e-03 6.005596e-06 2.916080e-03 1.780599e-03 1.780859e-03 1.208792e-02 1.003893e-02 1.030420e-02 
    39.5                3.081389e-03 3.077240e-03 1.683252e-03 5.945331e-03 7.355121e-03 6.083109e-06 3.076011e-03 1.748905e-03 1.749031e-03 1.242960e-02 1.043363e-02 1.066827e-02 
    40.5                3.036890e-03 3.037237e-03 1.710118e-03 5.808127e-03 7.147961e-03 6.271842e-06 3.031244e-03 1.678578e-03 1.678846e-03 1.219924e-02 1.021679e-02 1.050356e-02 
    41.5                3.162423e-03 3.160106e-03 1.776952e-03 5.682766e-03 7.051354e-03 6.944528e-06 3.157303e-03 1.628926e-03 1.628812e-03 1.215258e-02 1.036525e-02 1.063978e-02 
    42.5                3.361992e-03 3.360564e-03 2.261398e-03 5.209884e-03 7.225261e-03 7.178371e-06 3.356715e-03 1.642381e-03 1.642596e-03 1.237755e-02 1.082215e-02 1.099679e-02 
    43.5                3.277230e-03 3.274304e-03 2.388529e-03 4.778656e-03 6.830835e-03 6.997456e-06 3.273296e-03 1.570957e-03 1.570675e-03 1.181272e-02 1.041320e-02 1.063488e-02 
    44.5                3.616294e-03 3.615907e-03 2.687136e-03 4.937162e-03 7.057293e-03 7.384592e-06 3.611002e-03 1.616242e-03 1.616181e-03 1.239831e-02 1.113262e-02 1.150854e-02 
    45.5                3.790594e-03 3.788194e-03 3.144680e-03 4.737622e-03 7.454933e-03 7.497069e-06 3.787052e-03 1.663532e-03 1.663648e-03 1.299327e-02 1.172420e-02 1.200865e-02 
    46.5                3.777535e-03 3.778683e-03 3.192781e-03 4.558130e-03 7.233971e-03 7.614005e-06 3.775677e-03 1.600170e-03 1.600089e-03 1.272672e-02 1.154190e-02 1.190910e-02 
    47.5                3.918514e-03 3.914341e-03 3.413006e-03 4.272965e-03 7.316996e-03 8.201051e-06 3.914500e-03 1.590934e-03 1.590771e-03 1.272406e-02 1.184462e-02 1.208304e-02 
    48.5                4.130990e-03 4.132669e-03 3.705531e-03 4.109515e-03 7.313061e-03 8.448414e-06 4.127538e-03 1.645527e-03 1.645397e-03 1.279853e-02 1.222769e-02 1.253200e-02 
    49.5                4.543758e-03 4.546947e-03 4.395259e-03 3.977844e-03 7.849493e-03 8.844412e-06 4.542307e-03 1.689841e-03 1.689480e-03 1.366517e-02 1.330011e-02 1.362159e-02 
    50.5                4.923864e-03 4.924379e-03 4.830042e-03 3.837359e-03 8.203775e-03 9.303881e-06 4.920924e-03 1.755119e-03 1.754896e-03 1.418656e-02 1.422071e-02 1.446062e-02 
    51.5                5.661050e-03 5.660835e-03 5.888581e-03 3.639304e-03 9.052571e-03 9.961386e-06 5.657592e-03 1.854998e-03 1.854943e-03 1.551821e-02 1.608680e-02 1.633041e-02 
    52.5                6.165096e-03 6.167204e-03 6.962904e-03 3.261613e-03 9.853686e-03 9.862565e-06 6.164233e-03 1.922720e-03 1.922276e-03 1.659468e-02 1.751576e-02 1.769600e-02 
    53.5                6.265876e-03 6.263483e-03 7.327835e-03 2.935480e-03 9.864093e-03 9.515384e-06 6.265827e-03 1.954357e-03 1.954086e-03 1.649754e-02 1.770329e-02 1.788694e-02 
    54.5                6.364332e-03 6.357202e-03 7.612345e-03 2.620235e-03 9.896476e-03 9.284748e-06 6.365788e-03 1.955082e-03 1.955247e-03 1.641517e-02 1.788379e-02 1.803023e-02 
    55.5                6.143352e-03 6.139005e-03 7.670865e-03 2.369845e-03 9.667646e-03 8.799417e-06 6.143565e-03 1.919992e-03 1.919545e-03 1.599324e-02 1.736415e-02 1.752589e-02 
    56.5                6.124021e-03 6.121951e-03 7.570859e-03 2.207143e-03 9.424032e-03 8.453353e-06 6.124081e-03 1.891698e-03 1.891400e-03 1.552961e-02 1.713926e-02 1.729297e-02 
    57.5                5.747639e-03 5.741598e-03 7.351134e-03 1.835978e-03 8.977911e-03 7.522468e-06 5.748669e-03 1.829364e-03 1.829029e-03 1.465051e-02 1.618893e-02 1.626367e-02 
    58.5                5.328439e-03 5.326593e-03 6.847068e-03 1.582557e-03 8.196081e-03 6.781264e-06 5.330695e-03 1.701862e-03 1.701603e-03 1.334854e-02 1.492955e-02 1.500813e-02 
    59.5                5.085456e-03 5.083338e-03 6.521189e-03 1.411154e-03 7.713324e-03 6.260526e-06 5.085928e-03 1.571611e-03 1.571514e-03 1.251289e-02 1.416021e-02 1.423163e-02 
    60.5                4.838693e-03 4.831263e-03 6.353455e-03 1.177364e-03 7.375303e-03 5.678072e-06 4.840614e-03 1.425698e-03 1.425733e-03 1.188329e-02 1.349609e-02 1.354060e-02 
    61.5                4.382246e-03 4.382853e-03 5.795623e-03 9.706835e-04 6.640919e-03 4.983438e-06 4.383520e-03 1.256407e-03 1.256205e-03 1.061987e-02 1.220597e-02 1.223743e-02 
    62.5                3.893649e-03 3.888577e-03 5.417958e-03 7.241193e-04 6.044296e-03 4.133180e-06 3.896097e-03 1.094529e-03 1.094299e-03 9.578657e-03 1.093968e-02 1.096342e-02 
    63.5                3.182625e-03 3.176364e-03 4.440614e-03 5.608190e-04 4.925842e-03 3.311708e-06 3.184757e-03 9.128541e-04 9.127922e-04 7.758557e-03 8.924979e-03 8.942451e-03 
    64.5                2.611163e-03 2.609046e-03 3.676982e-03 4.193641e-04 4.036710e-03 2.648549e-06 2.613306e-03 7.401108e-04 7.400317e-04 6.340619e-03 7.324369e-03 7.337361e-03 
    65.5                2.065434e-03 2.064149e-03 2.933729e-03 3.007595e-04 3.193278e-03 2.077004e-06 2.067420e-03 5.691791e-04 5.691204e-04 4.990188e-03 5.794522e-03 5.802574e-03 
    66.5                1.621044e-03 1.617528e-03 2.368068e-03 2.026026e-04 2.542620e-03 1.530791e-06 1.622824e-03 4.242239e-04 4.241437e-04 3.941655e-03 4.568771e-03 4.573957e-03 
    67.5                1.161612e-03 1.157075e-03 1.746198e-03 1.204968e-04 1.852446e-03 1.031035e-06 1.163230e-03 2.889431e-04 2.889688e-04 2.849135e-03 3.293155e-03 3.295216e-03 
    68.5                7.583841e-04 7.565341e-04 1.181813e-03 6.381414e-05 1.236914e-03 6.371612e-07 7.597138e-04 1.765343e-04 1.764787e-04 1.885239e-03 2.171033e-03 2.172255e-03 
    69.5                4.446049e-04 4.434450e-04 7.266805e-04 2.623502e-05 7.497355e-04 3.230666e-07 4.457887e-04 9.294946e-05 9.294303e-05 1.129455e-03 1.288448e-03 1.288767e-03 
    70.5                2.095139e-04 2.089947e-04 3.660254e-04 7.621431e-06 3.726878e-04 1.302506e-07 2.101995e-04 3.909009e-05 3.907463e-05 5.537175e-04 6.205266e-04 6.206542e-04 
    71.5                6.359856e-05 6.340513e-05 1.325275e-04 9.053026e-07 1.332917e-04 2.539418e-08 6.397144e-05 1.076482e-05 1.076217e-05 1.945651e-04 2.026866e-04 2.027287e-04 
    72.5                9.615228e-06 9.551652e-06 2.316309e-05 2.717671e-08 2.316283e-05 2.307746e-09 9.709664e-06 1.609509e-06 1.610944e-06 3.329802e-05 3.294124e-05 3.295763e-05 
    73.5                4.994090e-07 4.927019e-07 1.760787e-06 0.000000e+00 1.759553e-06 0.000000e+00 5.084875e-07 6.727229e-08 6.736138e-08 2.497701e-06 2.129125e-06 2.130093e-06 
    74.5                0.000000e+00 0.000000e+00 0.000000e+00 0.000000e+00 0.000000e+00 0.000000e+00 0.000000e+00 0.000000e+00 0.000000e+00 0.000000e+00 0.000000e+00 0.000000e+00 
    75.5                0.000000e+00 0.000000e+00 0.000000e+00 0.000000e+00 0.000000e+00 0.000000e+00 0.000000e+00 0.000000e+00 0.000000e+00 0.000000e+00 0.000000e+00 0.000000e+00 
    76.5                0.000000e+00 0.000000e+00 0.000000e+00 0.000000e+00 0.000000e+00 0.000000e+00 0.000000e+00 0.000000e+00 0.000000e+00 0.000000e+00 0.000000e+00 0.000000e+00 
    77.5                0.000000e+00 0.000000e+00 0.000000e+00 0.000000e+00 0.000000e+00 0.000000e+00 0.000000e+00 0.000000e+00 0.000000e+00 0.000000e+00 0.000000e+00 0.000000e+00 
    78.5                0.000000e+00 0.000000e+00 0.000000e+00 0.000000e+00 0.000000e+00 0.000000e+00 0.000000e+00 0.000000e+00 0.000000e+00 0.000000e+00 0.000000e+00 0.000000e+00 
    79.5                0.000000e+00 0.000000e+00 0.000000e+00 0.000000e+00 0.000000e+00 0.000000e+00 0.000000e+00 0.000000e+00 0.000000e+00 0.000000e+00 0.000000e+00 0.000000e+00 


