# 80 rows of flux data
# 12 columns of flux data
# 
# total cross-sectional flux  2.269755e+00 /m^2/yr
#
#                             +x ram      -x wake      +y port -y starboard    +z zenith     -z nadir        Earth          Sun     anti-Sun      rot (x)      rot (y)      rot (z) 
# average speed (km/s)         23.95        24.78        25.37        20.27        21.87        25.41        25.12        24.70        24.72        23.61        23.91        24.30 
# total flux (#/m2/yr)  6.462886e-01 7.579623e-01 1.015896e+00 3.113362e-01 5.445017e-01 1.721034e-03 1.083702e+00 9.894088e-01 9.981555e-01 1.518206e+00 1.614494e+00 2.147217e+00 
# velocity (km/s)
     0.5                0.000000e+00 0.000000e+00 0.000000e+00 0.000000e+00 0.000000e+00 0.000000e+00 0.000000e+00 0.000000e+00 0.000000e+00 0.000000e+00 0.000000e+00 0.000000e+00 
     1.5                0.000000e+00 0.000000e+00 0.000000e+00 0.000000e+00 0.000000e+00 0.000000e+00 0.000000e+00 0.000000e+00 0.000000e+00 0.000000e+00 0.000000e+00 0.000000e+00 
     2.5                5.541282e-06 0.000000e+00 1.095541e-06 1.169186e-06 2.382955e-06 2.389190e-10 1.431539e-06 5.923896e-07 1.099755e-06 3.524645e-06 6.112679e-06 6.194464e-06 
     3.5                1.447148e-04 5.829826e-06 7.515698e-05 6.001340e-05 7.456855e-05 1.011323e-07 8.566518e-05 4.430116e-05 5.574030e-05 1.666026e-04 1.789753e-04 2.247290e-04 
     4.5                6.011565e-04 1.681826e-04 4.306573e-04 2.851608e-04 4.018178e-04 6.110687e-07 4.862466e-04 2.505083e-04 2.952439e-04 8.882458e-04 9.349502e-04 1.165876e-03 
     5.5                1.566594e-03 6.811643e-04 1.370970e-03 9.093618e-04 1.342869e-03 1.823330e-06 1.555721e-03 8.967531e-04 9.831040e-04 2.873744e-03 2.850403e-03 3.557507e-03 
     6.5                2.902276e-03 2.094207e-03 2.933557e-03 1.998817e-03 3.002936e-03 4.103120e-06 3.348128e-03 2.138844e-03 2.236865e-03 6.275572e-03 6.347001e-03 7.796157e-03 
     7.5                5.099095e-03 3.788175e-03 5.126653e-03 3.521687e-03 5.448100e-03 7.457374e-06 5.874392e-03 4.012325e-03 4.082375e-03 1.114684e-02 1.136275e-02 1.377042e-02 
     8.5                7.553130e-03 6.355623e-03 8.253834e-03 5.594090e-03 8.508996e-03 1.186527e-05 9.422270e-03 6.652827e-03 6.668138e-03 1.770441e-02 1.774808e-02 2.179410e-02 
     9.5                9.547566e-03 9.638804e-03 1.131518e-02 7.820388e-03 1.188237e-02 1.646025e-05 1.294313e-02 9.782892e-03 9.780858e-03 2.454237e-02 2.460096e-02 3.009892e-02 
    10.5                1.160679e-02 1.286060e-02 1.392851e-02 9.848369e-03 1.532808e-02 2.060095e-05 1.601049e-02 1.328507e-02 1.334929e-02 3.089843e-02 3.150658e-02 3.789373e-02 
    11.5                1.334765e-02 1.512800e-02 1.648145e-02 1.146899e-02 1.819299e-02 2.445321e-05 1.892790e-02 1.675511e-02 1.686305e-02 3.648898e-02 3.698566e-02 4.432609e-02 
    12.5                1.463258e-02 1.733359e-02 1.848871e-02 1.247463e-02 2.009442e-02 2.782985e-05 2.116253e-02 1.984791e-02 1.996752e-02 4.044494e-02 4.133306e-02 4.943355e-02 
    13.5                1.665825e-02 1.867847e-02 2.069039e-02 1.338934e-02 2.156010e-02 3.205890e-05 2.353690e-02 2.291061e-02 2.302811e-02 4.418002e-02 4.534129e-02 5.451824e-02 
    14.5                1.843773e-02 2.042679e-02 2.345699e-02 1.429860e-02 2.266146e-02 3.714171e-05 2.643243e-02 2.617105e-02 2.630734e-02 4.811130e-02 4.921652e-02 6.018052e-02 
    15.5                2.009089e-02 2.224320e-02 2.620937e-02 1.490098e-02 2.319472e-02 4.259059e-05 2.923924e-02 2.930513e-02 2.945572e-02 5.137199e-02 5.265285e-02 6.554691e-02 
    16.5                2.160593e-02 2.423146e-02 2.901049e-02 1.534568e-02 2.369179e-02 4.859132e-05 3.209061e-02 3.227914e-02 3.244736e-02 5.451212e-02 5.613984e-02 7.083448e-02 
    17.5                2.304524e-02 2.566694e-02 3.148566e-02 1.546747e-02 2.372851e-02 5.328119e-05 3.455581e-02 3.491839e-02 3.510400e-02 5.676497e-02 5.871389e-02 7.513480e-02 
    18.5                2.410881e-02 2.700835e-02 3.385236e-02 1.548719e-02 2.348605e-02 5.805524e-05 3.687454e-02 3.728466e-02 3.748090e-02 5.863922e-02 6.072305e-02 7.890393e-02 
    19.5                2.491736e-02 2.828482e-02 3.572640e-02 1.541636e-02 2.329498e-02 6.226607e-05 3.870678e-02 3.919120e-02 3.939674e-02 6.006276e-02 6.250838e-02 8.196490e-02 
    20.5                2.568538e-02 2.895923e-02 3.732029e-02 1.501725e-02 2.276808e-02 6.579667e-05 4.020942e-02 4.053206e-02 4.075764e-02 6.074751e-02 6.350878e-02 8.404281e-02 
    21.5                2.678056e-02 2.950717e-02 3.923232e-02 1.457652e-02 2.229450e-02 6.936036e-05 4.204484e-02 4.197229e-02 4.222411e-02 6.168602e-02 6.470441e-02 8.649089e-02 
    22.5                2.748787e-02 3.051433e-02 4.118030e-02 1.433102e-02 2.214007e-02 7.305801e-05 4.394811e-02 4.346502e-02 4.374218e-02 6.307111e-02 6.623411e-02 8.917704e-02 
    23.5                2.780022e-02 3.138324e-02 4.256637e-02 1.383945e-02 2.153896e-02 7.636082e-05 4.524050e-02 4.434916e-02 4.464934e-02 6.344886e-02 6.696068e-02 9.080956e-02 
    24.5                2.799728e-02 3.159279e-02 4.350130e-02 1.313119e-02 2.082262e-02 7.824907e-05 4.606289e-02 4.462082e-02 4.494767e-02 6.317594e-02 6.694314e-02 9.131363e-02 
    25.5                2.795190e-02 3.172079e-02 4.436228e-02 1.225990e-02 1.998348e-02 8.037522e-05 4.679271e-02 4.461274e-02 4.496848e-02 6.262332e-02 6.658253e-02 9.137867e-02 
    26.5                2.729909e-02 3.164498e-02 4.457325e-02 1.119411e-02 1.903013e-02 8.025044e-05 4.685933e-02 4.395150e-02 4.433047e-02 6.125079e-02 6.540606e-02 9.013970e-02 
    27.5                2.666816e-02 3.106187e-02 4.414212e-02 1.009806e-02 1.795093e-02 7.970502e-05 4.627062e-02 4.280831e-02 4.320421e-02 5.920774e-02 6.372455e-02 8.799068e-02 
    28.5                2.580511e-02 3.011948e-02 4.349176e-02 9.019401e-03 1.690918e-02 7.770203e-05 4.547253e-02 4.133348e-02 4.174153e-02 5.701048e-02 6.150188e-02 8.521844e-02 
    29.5                2.465040e-02 2.922967e-02 4.238259e-02 7.990877e-03 1.579705e-02 7.537401e-05 4.421159e-02 3.959636e-02 4.001443e-02 5.440289e-02 5.902105e-02 8.194228e-02 
    30.5                2.336139e-02 2.793437e-02 4.087284e-02 6.899152e-03 1.460899e-02 7.230090e-05 4.254216e-02 3.746678e-02 3.788806e-02 5.134758e-02 5.599036e-02 7.788198e-02 
    31.5                2.182177e-02 2.648808e-02 3.900287e-02 5.785879e-03 1.338046e-02 6.794912e-05 4.051209e-02 3.502676e-02 3.544617e-02 4.791296e-02 5.255965e-02 7.320753e-02 
    32.5                2.003190e-02 2.481066e-02 3.665386e-02 4.732556e-03 1.212889e-02 6.259877e-05 3.800671e-02 3.223914e-02 3.265001e-02 4.409436e-02 4.865645e-02 6.782289e-02 
    33.5                1.800758e-02 2.293264e-02 3.375209e-02 3.814842e-03 1.083970e-02 5.674282e-05 3.495050e-02 2.915239e-02 2.954133e-02 3.989065e-02 4.432087e-02 6.176596e-02 
    34.5                1.597817e-02 2.073279e-02 3.049887e-02 2.999453e-03 9.544051e-03 5.037940e-05 3.154694e-02 2.588846e-02 2.624976e-02 3.546675e-02 3.966737e-02 5.525708e-02 
    35.5                1.394852e-02 1.848003e-02 2.712953e-02 2.282899e-03 8.287659e-03 4.377314e-05 2.803386e-02 2.263408e-02 2.296376e-02 3.105208e-02 3.497584e-02 4.869322e-02 
    36.5                1.197542e-02 1.619938e-02 2.376103e-02 1.675524e-03 7.089176e-03 3.743058e-05 2.453182e-02 1.946308e-02 1.975660e-02 2.677597e-02 3.033780e-02 4.223605e-02 
    37.5                1.006124e-02 1.401185e-02 2.041467e-02 1.198342e-03 5.972004e-03 3.148921e-05 2.106261e-02 1.644176e-02 1.669865e-02 2.269393e-02 2.588293e-02 3.601357e-02 
    38.5                8.173964e-03 1.186474e-02 1.709782e-02 8.282935e-04 4.917272e-03 2.581944e-05 1.763187e-02 1.354270e-02 1.375895e-02 1.877964e-02 2.152170e-02 2.994799e-02 
    39.5                6.349519e-03 9.804878e-03 1.381240e-02 5.536979e-04 3.918204e-03 2.054372e-05 1.423973e-02 1.078305e-02 1.095590e-02 1.502026e-02 1.732839e-02 2.409142e-02 
    40.5                4.688835e-03 7.774866e-03 1.065691e-02 3.509815e-04 2.988509e-03 1.569430e-05 1.098473e-02 8.210187e-03 8.341751e-03 1.148921e-02 1.335395e-02 1.854231e-02 
    41.5                3.305201e-03 5.884096e-03 7.825275e-03 2.141505e-04 2.174394e-03 1.152442e-05 8.065589e-03 5.966255e-03 6.060052e-03 8.378386e-03 9.832264e-03 1.362161e-02 
    42.5                2.203584e-03 4.228366e-03 5.474098e-03 1.248564e-04 1.509897e-03 8.031702e-06 5.642633e-03 4.123643e-03 4.187437e-03 5.827534e-03 6.876563e-03 9.519637e-03 
    43.5                1.317589e-03 2.909936e-03 3.587047e-03 6.908667e-05 9.836287e-04 5.275868e-06 3.698152e-03 2.673815e-03 2.713586e-03 3.801418e-03 4.515873e-03 6.242706e-03 
    44.5                6.837882e-04 1.848630e-03 2.110432e-03 3.543357e-05 5.763449e-04 3.187832e-06 2.176489e-03 1.570728e-03 1.591626e-03 2.229397e-03 2.699108e-03 3.707404e-03 
    45.5                2.826739e-04 1.032947e-03 1.069061e-03 1.613886e-05 2.909939e-04 1.681991e-06 1.102961e-03 7.984858e-04 8.072480e-04 1.126754e-03 1.398279e-03 1.904035e-03 
    46.5                8.266298e-05 4.832042e-04 4.319076e-04 6.372792e-06 1.173323e-04 7.540745e-07 4.458225e-04 3.311704e-04 3.338371e-04 4.549083e-04 5.978137e-04 7.973487e-04 
    47.5                1.607100e-05 1.668890e-04 1.268050e-04 1.999224e-06 3.442426e-05 2.605372e-07 1.309693e-04 1.023243e-04 1.024483e-04 1.336768e-04 1.917547e-04 2.482103e-04 
    48.5                1.425014e-06 4.037043e-05 2.548906e-05 4.392411e-07 6.912665e-06 6.359601e-08 2.634735e-05 2.209895e-05 2.199041e-05 2.690740e-05 4.336385e-05 5.403173e-05 
    49.5                1.245099e-08 5.637101e-06 2.725903e-06 6.175816e-08 7.401195e-07 9.503692e-09 2.822655e-06 2.750814e-06 2.708946e-06 2.894118e-06 5.769969e-06 6.748504e-06 
    50.5                0.000000e+00 1.640301e-07 5.116648e-08 1.953975e-09 1.400463e-08 3.098145e-10 5.327898e-08 7.230940e-08 6.969247e-08 5.523771e-08 1.650948e-07 1.769919e-07 
    51.5                0.000000e+00 0.000000e+00 0.000000e+00 0.000000e+00 0.000000e+00 0.000000e+00 0.000000e+00 0.000000e+00 0.000000e+00 0.000000e+00 0.000000e+00 0.000000e+00 
    52.5                0.000000e+00 0.000000e+00 0.000000e+00 0.000000e+00 0.000000e+00 0.000000e+00 0.000000e+00 0.000000e+00 0.000000e+00 0.000000e+00 0.000000e+00 0.000000e+00 
    53.5                0.000000e+00 0.000000e+00 0.000000e+00 0.000000e+00 0.000000e+00 0.000000e+00 0.000000e+00 0.000000e+00 0.000000e+00 0.000000e+00 0.000000e+00 0.000000e+00 
    54.5                0.000000e+00 0.000000e+00 0.000000e+00 0.000000e+00 0.000000e+00 0.000000e+00 0.000000e+00 0.000000e+00 0.000000e+00 0.000000e+00 0.000000e+00 0.000000e+00 
    55.5                0.000000e+00 0.000000e+00 0.000000e+00 0.000000e+00 0.000000e+00 0.000000e+00 0.000000e+00 0.000000e+00 0.000000e+00 0.000000e+00 0.000000e+00 0.000000e+00 
    56.5                0.000000e+00 0.000000e+00 0.000000e+00 0.000000e+00 0.000000e+00 0.000000e+00 0.000000e+00 0.000000e+00 0.000000e+00 0.000000e+00 0.000000e+00 0.000000e+00 
    57.5                0.000000e+00 0.000000e+00 0.000000e+00 0.000000e+00 0.000000e+00 0.000000e+00 0.000000e+00 0.000000e+00 0.000000e+00 0.000000e+00 0.000000e+00 0.000000e+00 
    58.5                0.000000e+00 0.000000e+00 0.000000e+00 0.000000e+00 0.000000e+00 0.000000e+00 0.000000e+00 0.000000e+00 0.000000e+00 0.000000e+00 0.000000e+00 0.000000e+00 
    59.5                0.000000e+00 0.000000e+00 0.000000e+00 0.000000e+00 0.000000e+00 0.000000e+00 0.000000e+00 0.000000e+00 0.000000e+00 0.000000e+00 0.000000e+00 0.000000e+00 
    60.5                0.000000e+00 0.000000e+00 0.000000e+00 0.000000e+00 0.000000e+00 0.000000e+00 0.000000e+00 0.000000e+00 0.000000e+00 0.000000e+00 0.000000e+00 0.000000e+00 
    61.5                0.000000e+00 0.000000e+00 0.000000e+00 0.000000e+00 0.000000e+00 0.000000e+00 0.000000e+00 0.000000e+00 0.000000e+00 0.000000e+00 0.000000e+00 0.000000e+00 
    62.5                0.000000e+00 0.000000e+00 0.000000e+00 0.000000e+00 0.000000e+00 0.000000e+00 0.000000e+00 0.000000e+00 0.000000e+00 0.000000e+00 0.000000e+00 0.000000e+00 
    63.5                0.000000e+00 0.000000e+00 0.000000e+00 0.000000e+00 0.000000e+00 0.000000e+00 0.000000e+00 0.000000e+00 0.000000e+00 0.000000e+00 0.000000e+00 0.000000e+00 
    64.5                0.000000e+00 0.000000e+00 0.000000e+00 0.000000e+00 0.000000e+00 0.000000e+00 0.000000e+00 0.000000e+00 0.000000e+00 0.000000e+00 0.000000e+00 0.000000e+00 
    65.5                0.000000e+00 0.000000e+00 0.000000e+00 0.000000e+00 0.000000e+00 0.000000e+00 0.000000e+00 0.000000e+00 0.000000e+00 0.000000e+00 0.000000e+00 0.000000e+00 
    66.5                0.000000e+00 0.000000e+00 0.000000e+00 0.000000e+00 0.000000e+00 0.000000e+00 0.000000e+00 0.000000e+00 0.000000e+00 0.000000e+00 0.000000e+00 0.000000e+00 
    67.5                0.000000e+00 0.000000e+00 0.000000e+00 0.000000e+00 0.000000e+00 0.000000e+00 0.000000e+00 0.000000e+00 0.000000e+00 0.000000e+00 0.000000e+00 0.000000e+00 
    68.5                0.000000e+00 0.000000e+00 0.000000e+00 0.000000e+00 0.000000e+00 0.000000e+00 0.000000e+00 0.000000e+00 0.000000e+00 0.000000e+00 0.000000e+00 0.000000e+00 
    69.5                0.000000e+00 0.000000e+00 0.000000e+00 0.000000e+00 0.000000e+00 0.000000e+00 0.000000e+00 0.000000e+00 0.000000e+00 0.000000e+00 0.000000e+00 0.000000e+00 
    70.5                0.000000e+00 0.000000e+00 0.000000e+00 0.000000e+00 0.000000e+00 0.000000e+00 0.000000e+00 0.000000e+00 0.000000e+00 0.000000e+00 0.000000e+00 0.000000e+00 
    71.5                0.000000e+00 0.000000e+00 0.000000e+00 0.000000e+00 0.000000e+00 0.000000e+00 0.000000e+00 0.000000e+00 0.000000e+00 0.000000e+00 0.000000e+00 0.000000e+00 
    72.5                0.000000e+00 0.000000e+00 0.000000e+00 0.000000e+00 0.000000e+00 0.000000e+00 0.000000e+00 0.000000e+00 0.000000e+00 0.000000e+00 0.000000e+00 0.000000e+00 
    73.5                0.000000e+00 0.000000e+00 0.000000e+00 0.000000e+00 0.000000e+00 0.000000e+00 0.000000e+00 0.000000e+00 0.000000e+00 0.000000e+00 0.000000e+00 0.000000e+00 
    74.5                0.000000e+00 0.000000e+00 0.000000e+00 0.000000e+00 0.000000e+00 0.000000e+00 0.000000e+00 0.000000e+00 0.000000e+00 0.000000e+00 0.000000e+00 0.000000e+00 
    75.5                0.000000e+00 0.000000e+00 0.000000e+00 0.000000e+00 0.000000e+00 0.000000e+00 0.000000e+00 0.000000e+00 0.000000e+00 0.000000e+00 0.000000e+00 0.000000e+00 
    76.5                0.000000e+00 0.000000e+00 0.000000e+00 0.000000e+00 0.000000e+00 0.000000e+00 0.000000e+00 0.000000e+00 0.000000e+00 0.000000e+00 0.000000e+00 0.000000e+00 
    77.5                0.000000e+00 0.000000e+00 0.000000e+00 0.000000e+00 0.000000e+00 0.000000e+00 0.000000e+00 0.000000e+00 0.000000e+00 0.000000e+00 0.000000e+00 0.000000e+00 
    78.5                0.000000e+00 0.000000e+00 0.000000e+00 0.000000e+00 0.000000e+00 0.000000e+00 0.000000e+00 0.000000e+00 0.000000e+00 0.000000e+00 0.000000e+00 0.000000e+00 
    79.5                0.000000e+00 0.000000e+00 0.000000e+00 0.000000e+00 0.000000e+00 0.000000e+00 0.000000e+00 0.000000e+00 0.000000e+00 0.000000e+00 0.000000e+00 0.000000e+00 


