# 40 rows of flux data
# 12 columns of flux data
# 
# total cross-sectional flux  1.023837e+00 /m^2/yr
#
#                             +x ram      -x wake      +y port -y starboard    +z zenith     -z nadir        Earth          Sun     anti-Sun      rot (x)      rot (y)      rot (z) 
# average speed (km/s)         36.89        38.17        43.03        28.59        33.47        39.70        30.72        28.15        27.70        33.78        35.34        35.35 
# total flux (#/m2/yr)  2.520885e-01 2.115300e-01 1.816948e-01 3.531863e-01 5.343351e-01 5.425173e-07 1.032926e-01 1.673620e-01 1.632369e-01 8.492828e-01 7.801822e-01 7.804643e-01 
# velocity (km/s)
     1.0                0.000000e+00 0.000000e+00 0.000000e+00 0.000000e+00 0.000000e+00 0.000000e+00 0.000000e+00 0.000000e+00 0.000000e+00 0.000000e+00 0.000000e+00 0.000000e+00 
     3.0                3.710991e-04 5.789047e-04 5.182685e-04 4.383778e-04 9.358792e-04 8.411481e-10 1.528282e-04 5.185927e-04 4.836361e-04 1.495188e-03 1.481975e-03 1.499114e-03 
     5.0                2.499314e-03 2.046829e-03 2.298201e-03 2.168174e-03 4.414339e-03 4.862216e-09 7.007704e-04 2.542451e-03 2.465985e-03 7.025627e-03 7.029594e-03 7.072923e-03 
     7.0                5.008795e-03 3.536753e-03 3.872963e-03 5.240973e-03 9.075431e-03 9.385711e-09 1.542622e-03 4.973645e-03 4.940680e-03 1.434189e-02 1.381385e-02 1.384457e-02 
     9.0                6.991482e-03 4.811296e-03 4.814573e-03 8.892092e-03 1.369821e-02 1.269823e-08 2.463314e-03 7.063241e-03 7.067282e-03 2.151023e-02 1.998886e-02 1.999271e-02 
    11.0                8.427271e-03 5.882745e-03 5.267531e-03 1.277488e-02 1.806534e-02 1.475448e-08 3.365629e-03 8.886496e-03 8.849478e-03 2.820027e-02 2.539929e-02 2.537465e-02 
    13.0                9.487411e-03 6.487546e-03 5.268220e-03 1.646702e-02 2.178096e-02 1.555869e-08 4.167978e-03 1.012286e-02 1.005871e-02 3.380980e-02 2.964836e-02 2.960398e-02 
    15.0                9.615751e-03 6.830449e-03 4.974130e-03 1.906849e-02 2.410254e-02 1.516566e-08 4.612864e-03 1.048138e-02 1.040773e-02 3.719146e-02 3.191339e-02 3.185666e-02 
    17.0                9.707827e-03 7.007641e-03 4.690335e-03 2.077815e-02 2.551564e-02 1.505586e-08 4.947189e-03 1.059629e-02 1.052488e-02 3.930093e-02 3.325370e-02 3.320827e-02 
    19.0                9.624924e-03 7.132293e-03 4.355449e-03 2.201890e-02 2.641777e-02 1.448810e-08 5.243163e-03 1.038364e-02 1.030863e-02 4.066966e-02 3.397978e-02 3.393728e-02 
    21.0                9.296225e-03 7.062547e-03 3.855768e-03 2.215142e-02 2.603814e-02 1.381149e-08 5.377825e-03 9.769071e-03 9.700544e-03 4.014102e-02 3.329650e-02 3.326671e-02 
    23.0                9.068067e-03 6.828729e-03 3.460456e-03 2.214040e-02 2.562567e-02 1.280623e-08 5.448901e-03 9.092241e-03 9.028468e-03 3.955431e-02 3.256157e-02 3.253735e-02 
    25.0                8.254800e-03 6.445767e-03 2.994551e-03 2.049349e-02 2.350503e-02 1.177605e-08 5.177229e-03 8.046756e-03 7.989536e-03 3.636768e-02 2.985793e-02 2.984129e-02 
    27.0                7.755127e-03 6.186122e-03 2.663987e-03 1.917279e-02 2.184671e-02 1.085204e-08 5.062068e-03 7.208163e-03 7.154342e-03 3.396514e-02 2.785434e-02 2.784500e-02 
    29.0                7.207397e-03 5.715775e-03 2.236766e-03 1.755518e-02 1.979146e-02 1.039133e-08 4.848794e-03 6.185260e-03 6.137779e-03 3.096095e-02 2.537690e-02 2.537735e-02 
    31.0                6.442689e-03 5.355895e-03 1.868749e-03 1.607774e-02 1.794012e-02 9.678913e-09 4.551959e-03 5.289464e-03 5.247143e-03 2.817467e-02 2.301240e-02 2.301798e-02 
    33.0                6.075330e-03 5.195311e-03 1.666189e-03 1.460191e-02 1.625193e-02 1.007607e-08 4.435904e-03 4.531298e-03 4.489803e-03 2.581073e-02 2.120563e-02 2.122067e-02 
    35.0                5.984767e-03 5.168578e-03 1.639313e-03 1.377138e-02 1.538246e-02 1.205728e-08 4.425147e-03 4.051594e-03 4.006758e-03 2.471290e-02 2.040876e-02 2.043413e-02 
    37.0                5.807273e-03 5.263679e-03 1.751613e-03 1.276198e-02 1.447011e-02 1.454655e-08 4.313123e-03 3.607442e-03 3.554930e-03 2.351889e-02 1.963357e-02 1.967180e-02 
    39.0                5.987640e-03 5.629830e-03 2.468011e-03 1.186119e-02 1.426708e-02 1.998595e-08 4.131559e-03 3.376812e-03 3.294055e-03 2.349099e-02 1.992945e-02 1.998110e-02 
    41.0                6.145041e-03 5.993508e-03 2.951106e-03 1.118161e-02 1.406472e-02 2.138490e-08 4.018569e-03 3.182119e-03 3.083019e-03 2.338152e-02 2.020089e-02 2.025499e-02 
    43.0                6.637806e-03 6.284026e-03 4.061929e-03 9.803211e-03 1.379629e-02 2.312255e-08 3.625159e-03 3.120097e-03 2.984257e-03 2.314620e-02 2.066449e-02 2.071567e-02 
    45.0                7.202558e-03 7.087464e-03 5.294316e-03 9.197903e-03 1.442660e-02 2.511713e-08 3.455050e-03 3.187799e-03 3.016223e-03 2.431217e-02 2.227716e-02 2.232363e-02 
    47.0                7.540043e-03 7.493565e-03 6.026487e-03 8.507184e-03 1.446559e-02 2.687672e-08 3.293604e-03 3.148947e-03 2.962692e-03 2.440770e-02 2.294274e-02 2.299080e-02 
    49.0                8.285528e-03 8.902506e-03 7.984540e-03 7.656060e-03 1.557716e-02 2.810143e-08 2.971668e-03 3.348714e-03 3.113062e-03 2.610714e-02 2.555928e-02 2.560130e-02 
    51.0                9.938740e-03 1.121861e-02 1.124573e-02 6.997086e-03 1.818092e-02 3.224216e-08 2.726767e-03 3.700226e-03 3.383067e-03 3.016373e-02 3.081345e-02 3.085023e-02 
    53.0                1.205819e-02 1.185050e-02 1.385767e-02 5.830758e-03 1.963899e-02 3.261993e-08 2.271439e-03 3.920156e-03 3.550914e-03 3.208856e-02 3.419921e-02 3.422433e-02 
    55.0                1.232494e-02 1.129210e-02 1.421089e-02 4.684319e-03 1.885413e-02 3.011311e-08 1.811418e-03 3.867210e-03 3.506543e-03 3.054214e-02 3.340676e-02 3.342590e-02 
    57.0                1.176860e-02 1.033948e-02 1.368447e-02 3.747626e-03 1.739914e-02 2.709042e-08 1.440210e-03 3.649701e-03 3.317460e-03 2.802921e-02 3.111314e-02 3.112601e-02 
    59.0                1.032935e-02 9.249114e-03 1.240024e-02 2.769402e-03 1.514900e-02 2.162739e-08 1.051455e-03 3.154974e-03 2.867925e-03 2.420091e-02 2.736315e-02 2.736861e-02 
    61.0                9.235221e-03 7.677170e-03 1.099112e-02 2.002012e-03 1.297878e-02 1.805778e-08 7.582118e-04 2.536994e-03 2.293884e-03 2.053440e-02 2.357352e-02 2.357575e-02 
    63.0                7.358353e-03 5.316552e-03 8.243870e-03 1.243032e-03 9.479107e-03 1.287019e-08 4.699388e-04 1.840652e-03 1.666902e-03 1.484676e-02 1.748053e-02 1.748104e-02 
    65.0                4.889712e-03 3.370597e-03 5.448826e-03 6.919802e-04 6.135592e-03 7.893773e-09 2.621372e-04 1.155254e-03 1.045524e-03 9.534433e-03 1.136711e-02 1.136747e-02 
    67.0                3.007555e-03 1.702037e-03 3.120619e-03 3.224646e-04 3.440613e-03 4.434103e-09 1.227769e-04 5.899086e-04 5.299155e-04 5.289926e-03 6.438646e-03 6.438642e-03 
    69.0                1.379225e-03 5.381562e-04 1.260351e-03 1.010897e-04 1.360244e-03 1.765058e-09 3.897955e-05 2.002471e-04 1.771626e-04 2.062263e-03 2.591503e-03 2.591617e-03 
    71.0                3.567600e-04 4.778572e-05 2.401786e-04 1.562006e-05 2.555660e-04 3.876922e-10 6.169766e-06 3.135687e-05 2.718839e-05 3.819546e-04 5.240017e-04 5.240684e-04 
    73.0                1.774339e-05 1.185026e-07 7.375283e-06 4.147740e-07 7.776294e-06 2.099422e-11 1.803639e-07 9.193527e-07 8.014697e-07 1.146219e-05 2.073363e-05 2.073817e-05 
    75.0                0.000000e+00 0.000000e+00 0.000000e+00 0.000000e+00 0.000000e+00 0.000000e+00 0.000000e+00 0.000000e+00 0.000000e+00 0.000000e+00 0.000000e+00 0.000000e+00 
    77.0                0.000000e+00 0.000000e+00 0.000000e+00 0.000000e+00 0.000000e+00 0.000000e+00 0.000000e+00 0.000000e+00 0.000000e+00 0.000000e+00 0.000000e+00 0.000000e+00 
    79.0                0.000000e+00 0.000000e+00 0.000000e+00 0.000000e+00 0.000000e+00 0.000000e+00 0.000000e+00 0.000000e+00 0.000000e+00 0.000000e+00 0.000000e+00 0.000000e+00 


