# 80 rows of flux data
# 12 columns of flux data
# 
# total cross-sectional flux  1.040550e+00 /m^2/yr
#
#                             +x ram      -x wake      +y port -y starboard    +z zenith     -z nadir        Earth          Sun     anti-Sun      rot (x)      rot (y)      rot (z) 
# average speed (km/s)         38.35        37.07        42.57        33.02        31.87        46.03        38.99        27.93        28.12        34.02        34.35        36.98 
# total flux (#/m2/yr)  2.157562e-01 2.568215e-01 1.721255e-01 3.243059e-01 5.924999e-01 2.497083e-04 2.921311e-01 1.674254e-01 1.689131e-01 8.619794e-01 8.316357e-01 7.600556e-01 
# velocity (km/s)
     0.5                0.000000e+00 0.000000e+00 0.000000e+00 0.000000e+00 0.000000e+00 0.000000e+00 0.000000e+00 0.000000e+00 0.000000e+00 0.000000e+00 0.000000e+00 0.000000e+00 
     1.5                0.000000e+00 0.000000e+00 0.000000e+00 0.000000e+00 0.000000e+00 0.000000e+00 0.000000e+00 0.000000e+00 0.000000e+00 0.000000e+00 0.000000e+00 0.000000e+00 
     2.5                1.188818e-04 3.208624e-05 8.669397e-05 8.753043e-05 1.550724e-04 6.714557e-08 1.194067e-04 8.305955e-05 8.340381e-05 2.586302e-04 2.413023e-04 2.557108e-04 
     3.5                4.740946e-04 3.655709e-04 4.662851e-04 4.107690e-04 7.595403e-04 4.570189e-07 6.308399e-04 4.334176e-04 4.500663e-04 1.290024e-03 1.259039e-03 1.348973e-03 
     4.5                8.445175e-04 9.602869e-04 9.433847e-04 8.684416e-04 1.649327e-03 1.091449e-06 1.298472e-03 9.637030e-04 9.838935e-04 2.731885e-03 2.719666e-03 2.842137e-03 
     5.5                1.252384e-03 1.612237e-03 1.400177e-03 1.429536e-03 2.741522e-03 1.705434e-06 1.984826e-03 1.592885e-03 1.610581e-03 4.399516e-03 4.404366e-03 4.473701e-03 
     6.5                1.621640e-03 2.275647e-03 1.797258e-03 2.111232e-03 4.056466e-03 2.262813e-06 2.634166e-03 2.234999e-03 2.243170e-03 6.288240e-03 6.249692e-03 6.131043e-03 
     7.5                1.985875e-03 2.839743e-03 2.093333e-03 2.829662e-03 5.447390e-03 2.657900e-06 3.191084e-03 2.825107e-03 2.822748e-03 8.188269e-03 8.077936e-03 7.655727e-03 
     8.5                2.322096e-03 3.348153e-03 2.326439e-03 3.522289e-03 6.814153e-03 2.917909e-06 3.667498e-03 3.361315e-03 3.354144e-03 9.986681e-03 9.816135e-03 9.042147e-03 
     9.5                2.577188e-03 3.764421e-03 2.493306e-03 4.183176e-03 8.123184e-03 3.139933e-06 4.063648e-03 3.834155e-03 3.830824e-03 1.166969e-02 1.138614e-02 1.021767e-02 
    10.5                2.878242e-03 4.096825e-03 2.593745e-03 4.842053e-03 9.406010e-03 3.269902e-06 4.379880e-03 4.280731e-03 4.284680e-03 1.327532e-02 1.290578e-02 1.131097e-02 
    11.5                3.102983e-03 4.462425e-03 2.679398e-03 5.592909e-03 1.091571e-02 3.329878e-06 4.696314e-03 4.735192e-03 4.743140e-03 1.511055e-02 1.458717e-02 1.242800e-02 
    12.5                3.276686e-03 4.726763e-03 2.679356e-03 6.159859e-03 1.205663e-02 3.292446e-06 4.893241e-03 5.052546e-03 5.062610e-03 1.645424e-02 1.583830e-02 1.321720e-02 
    13.5                3.312416e-03 4.888804e-03 2.630056e-03 6.616341e-03 1.305099e-02 3.201066e-06 4.953562e-03 5.185624e-03 5.197389e-03 1.753944e-02 1.682908e-02 1.369854e-02 
    14.5                3.434638e-03 4.794526e-03 2.569701e-03 6.878938e-03 1.359692e-02 3.147405e-06 4.950526e-03 5.239415e-03 5.253942e-03 1.811626e-02 1.731916e-02 1.387693e-02 
    15.5                3.495232e-03 4.949093e-03 2.491714e-03 7.383818e-03 1.465200e-02 2.994862e-06 5.021221e-03 5.351103e-03 5.364725e-03 1.927422e-02 1.835583e-02 1.438108e-02 
    16.5                3.545717e-03 4.904715e-03 2.430765e-03 7.521824e-03 1.491501e-02 2.958759e-06 4.983859e-03 5.369202e-03 5.382159e-03 1.953691e-02 1.857340e-02 1.444314e-02 
    17.5                3.556327e-03 4.920160e-03 2.351380e-03 7.722822e-03 1.532861e-02 2.786675e-06 4.964010e-03 5.332683e-03 5.345895e-03 1.995275e-02 1.893169e-02 1.456334e-02 
    18.5                3.616329e-03 4.885647e-03 2.254673e-03 7.935117e-03 1.576725e-02 2.631266e-06 4.932241e-03 5.291835e-03 5.304721e-03 2.038535e-02 1.930667e-02 1.467317e-02 
    19.5                3.598379e-03 4.843125e-03 2.165636e-03 8.006720e-03 1.586263e-02 2.500431e-06 4.881380e-03 5.178543e-03 5.191963e-03 2.045832e-02 1.930562e-02 1.460287e-02 
    20.5                3.545126e-03 4.768062e-03 2.029902e-03 7.905639e-03 1.566467e-02 2.402388e-06 4.725615e-03 4.993314e-03 5.005694e-03 2.012634e-02 1.901801e-02 1.431554e-02 
    21.5                3.592108e-03 4.618272e-03 1.952970e-03 7.965687e-03 1.575970e-02 2.249038e-06 4.657644e-03 4.852913e-03 4.864729e-03 2.018101e-02 1.900693e-02 1.422290e-02 
    22.5                3.517618e-03 4.682965e-03 1.870160e-03 8.089024e-03 1.599836e-02 2.109894e-06 4.631748e-03 4.730703e-03 4.741726e-03 2.040829e-02 1.918168e-02 1.424971e-02 
    23.5                3.374970e-03 4.462155e-03 1.726856e-03 7.663990e-03 1.514272e-02 1.903074e-06 4.355079e-03 4.428461e-03 4.438191e-03 1.929150e-02 1.816817e-02 1.350517e-02 
    24.5                3.292994e-03 4.205357e-03 1.615687e-03 7.359865e-03 1.450940e-02 1.750712e-06 4.166498e-03 4.163743e-03 4.172997e-03 1.847704e-02 1.736719e-02 1.291085e-02 
    25.5                3.206738e-03 4.111564e-03 1.517221e-03 7.190798e-03 1.417192e-02 1.607545e-06 4.026725e-03 3.937022e-03 3.945582e-03 1.801198e-02 1.692867e-02 1.255413e-02 
    26.5                3.178688e-03 3.936889e-03 1.460849e-03 6.952828e-03 1.364309e-02 1.531791e-06 3.919342e-03 3.729091e-03 3.737796e-03 1.737729e-02 1.630967e-02 1.216123e-02 
    27.5                3.051878e-03 3.872759e-03 1.375062e-03 6.708629e-03 1.309410e-02 1.424754e-06 3.780824e-03 3.523894e-03 3.531323e-03 1.669892e-02 1.567044e-02 1.174873e-02 
    28.5                2.983004e-03 3.694691e-03 1.277942e-03 6.439220e-03 1.251591e-02 1.269418e-06 3.606071e-03 3.261838e-03 3.268819e-03 1.595867e-02 1.498276e-02 1.126884e-02 
    29.5                2.766684e-03 3.554415e-03 1.174590e-03 6.114422e-03 1.184074e-02 1.085055e-06 3.394429e-03 2.954654e-03 2.960687e-03 1.508750e-02 1.415059e-02 1.065154e-02 
    30.5                2.694277e-03 3.290667e-03 1.057708e-03 5.833232e-03 1.127794e-02 9.400826e-07 3.171401e-03 2.736242e-03 2.740837e-03 1.432910e-02 1.343599e-02 1.007195e-02 
    31.5                2.684273e-03 3.179403e-03 1.000101e-03 5.682448e-03 1.092334e-02 8.042407e-07 3.097582e-03 2.570078e-03 2.574345e-03 1.389735e-02 1.301974e-02 9.817979e-03 
    32.5                2.577249e-03 3.093068e-03 9.730893e-04 5.377687e-03 1.025856e-02 7.356281e-07 2.975641e-03 2.358744e-03 2.362898e-03 1.311110e-02 1.229551e-02 9.406600e-03 
    33.5                2.635110e-03 3.001682e-03 9.697360e-04 5.246133e-03 9.909523e-03 7.036192e-07 2.949745e-03 2.179289e-03 2.183461e-03 1.273551e-02 1.195004e-02 9.276512e-03 
    34.5                2.636199e-03 3.056639e-03 9.446259e-04 5.312366e-03 9.966919e-03 6.231113e-07 2.961756e-03 2.093086e-03 2.096220e-03 1.281775e-02 1.201728e-02 9.356676e-03 
    35.5                2.543884e-03 2.940449e-03 9.370830e-04 4.965354e-03 9.175251e-03 5.317756e-07 2.832561e-03 1.955162e-03 1.957965e-03 1.190888e-02 1.119119e-02 8.914950e-03 
    36.5                2.595998e-03 2.847328e-03 9.521483e-04 4.894125e-03 8.943141e-03 6.097762e-07 2.825829e-03 1.826572e-03 1.829419e-03 1.168354e-02 1.096072e-02 8.845312e-03 
    37.5                2.673405e-03 2.967900e-03 9.722116e-04 4.987351e-03 9.031019e-03 5.891502e-07 2.879318e-03 1.770224e-03 1.772450e-03 1.184247e-02 1.116055e-02 9.091297e-03 
    38.5                2.870474e-03 2.882529e-03 1.054213e-03 4.974701e-03 8.820721e-03 6.142275e-07 2.952822e-03 1.697707e-03 1.700571e-03 1.172928e-02 1.104772e-02 9.230230e-03 
    39.5                2.763409e-03 3.110419e-03 1.131611e-03 5.017661e-03 8.748426e-03 6.896350e-07 3.046941e-03 1.647030e-03 1.649836e-03 1.176777e-02 1.106927e-02 9.424550e-03 
    40.5                2.849206e-03 3.055149e-03 1.114958e-03 4.949724e-03 8.573996e-03 6.385147e-07 3.006068e-03 1.579942e-03 1.582518e-03 1.156159e-02 1.094360e-02 9.388703e-03 
    41.5                3.152448e-03 3.089746e-03 1.306086e-03 5.054168e-03 8.618731e-03 7.346992e-07 3.240129e-03 1.560656e-03 1.565300e-03 1.182623e-02 1.120765e-02 9.882548e-03 
    42.5                3.060813e-03 3.369555e-03 1.477722e-03 5.040965e-03 8.403908e-03 8.734529e-07 3.399992e-03 1.552953e-03 1.559335e-03 1.178047e-02 1.117912e-02 1.016083e-02 
    43.5                3.237961e-03 3.275500e-03 1.531284e-03 4.885062e-03 8.013987e-03 9.625918e-07 3.382704e-03 1.505682e-03 1.512490e-03 1.139459e-02 1.093855e-02 1.014368e-02 
    44.5                3.561433e-03 3.437391e-03 1.753565e-03 5.236428e-03 8.341944e-03 1.374760e-06 3.713024e-03 1.556828e-03 1.564084e-03 1.212204e-02 1.155614e-02 1.098340e-02 
    45.5                3.545989e-03 3.786178e-03 1.830593e-03 5.367492e-03 8.360580e-03 1.435384e-06 3.817000e-03 1.561484e-03 1.567688e-03 1.230461e-02 1.182109e-02 1.140636e-02 
    46.5                3.641954e-03 3.704190e-03 1.946783e-03 5.269328e-03 8.159222e-03 1.424512e-06 3.903499e-03 1.523274e-03 1.531884e-03 1.215603e-02 1.169189e-02 1.143330e-02 
    47.5                3.900064e-03 3.858703e-03 2.290727e-03 5.235663e-03 8.137597e-03 2.173466e-06 4.249658e-03 1.545622e-03 1.560941e-03 1.239905e-02 1.202120e-02 1.200272e-02 
    48.5                4.291305e-03 3.973112e-03 2.760315e-03 5.360179e-03 8.125341e-03 3.781896e-06 4.730066e-03 1.598178e-03 1.618887e-03 1.290510e-02 1.244408e-02 1.286768e-02 
    49.5                4.726792e-03 4.416520e-03 3.203276e-03 5.655040e-03 8.398319e-03 5.376125e-06 5.256742e-03 1.666174e-03 1.691510e-03 1.374755e-02 1.337501e-02 1.413996e-02 
    50.5                5.464307e-03 4.717952e-03 3.965991e-03 5.961046e-03 8.747329e-03 7.683130e-06 6.120224e-03 1.759050e-03 1.794851e-03 1.492600e-02 1.451889e-02 1.580008e-02 
    51.5                6.057227e-03 5.423633e-03 5.195356e-03 6.087456e-03 9.159078e-03 9.915487e-06 7.451006e-03 1.843219e-03 1.900244e-03 1.636741e-02 1.593622e-02 1.787822e-02 
    52.5                6.082391e-03 6.151239e-03 5.990782e-03 5.888229e-03 9.103217e-03 1.114374e-05 8.234114e-03 1.890334e-03 1.961590e-03 1.680978e-02 1.657028e-02 1.892181e-02 
    53.5                6.179585e-03 6.281017e-03 6.412416e-03 5.548836e-03 8.815152e-03 1.108701e-05 8.590023e-03 1.907043e-03 1.986810e-03 1.663518e-02 1.659214e-02 1.916013e-02 
    54.5                5.824537e-03 6.415845e-03 6.551328e-03 5.254991e-03 8.415556e-03 1.127953e-05 8.634101e-03 1.892568e-03 1.974464e-03 1.619515e-02 1.615157e-02 1.887060e-02 
    55.5                5.880450e-03 6.352642e-03 6.526249e-03 5.006954e-03 8.067198e-03 1.133073e-05 8.523359e-03 1.868753e-03 1.949427e-03 1.570168e-02 1.591053e-02 1.864171e-02 
    56.5                5.610277e-03 6.225377e-03 6.516210e-03 4.810682e-03 7.710131e-03 1.148749e-05 8.433023e-03 1.830029e-03 1.909422e-03 1.526249e-02 1.535193e-02 1.817393e-02 
    57.5                5.135847e-03 5.993866e-03 6.216906e-03 4.379244e-03 7.037430e-03 1.135566e-05 7.964230e-03 1.741939e-03 1.816323e-03 1.415328e-02 1.430628e-02 1.705705e-02 
    58.5                4.941479e-03 5.527197e-03 6.054527e-03 3.914947e-03 6.403273e-03 1.138164e-05 7.637981e-03 1.613860e-03 1.687176e-03 1.316151e-02 1.332676e-02 1.603709e-02 
    59.5                4.725148e-03 5.241163e-03 5.920000e-03 3.586866e-03 5.933338e-03 1.124170e-05 7.387792e-03 1.481265e-03 1.553118e-03 1.242477e-02 1.260200e-02 1.527189e-02 
    60.5                4.302134e-03 5.060534e-03 5.697126e-03 3.146715e-03 5.429810e-03 1.021324e-05 7.035808e-03 1.321050e-03 1.391212e-03 1.147522e-02 1.174904e-02 1.427596e-02 
    61.5                3.766299e-03 4.592744e-03 5.376543e-03 2.630610e-03 4.727842e-03 9.615663e-06 6.535157e-03 1.156039e-03 1.223164e-03 1.024338e-02 1.043835e-02 1.283806e-02 
    62.5                3.084753e-03 4.247953e-03 4.729518e-03 2.101560e-03 3.969624e-03 8.245334e-06 5.696338e-03 9.865184e-04 1.045696e-03 8.681085e-03 9.037990e-03 1.109828e-02 
    63.5                2.522332e-03 3.482174e-03 3.962462e-03 1.639409e-03 3.165256e-03 7.108254e-06 4.731397e-03 8.126430e-04 8.619772e-04 7.053188e-03 7.362419e-03 9.095609e-03 
    64.5                2.024509e-03 2.869308e-03 3.283657e-03 1.269172e-03 2.527416e-03 5.974515e-06 3.893845e-03 6.438281e-04 6.844661e-04 5.698757e-03 5.970324e-03 7.404048e-03 
    65.5                1.549395e-03 2.284376e-03 2.675589e-03 9.166149e-04 1.942681e-03 4.801158e-06 3.140685e-03 4.845481e-04 5.179383e-04 4.453528e-03 4.660383e-03 5.820014e-03 
    66.5                1.105849e-03 1.835732e-03 2.092806e-03 6.272653e-04 1.444237e-03 3.634444e-06 2.435906e-03 3.456689e-04 3.719568e-04 3.346355e-03 3.549000e-03 4.433854e-03 
    67.5                7.097157e-04 1.347619e-03 1.489578e-03 3.719186e-04 9.766323e-04 2.384716e-06 1.719857e-03 2.230662e-04 2.420141e-04 2.273287e-03 2.462982e-03 3.068052e-03 
    68.5                3.982322e-04 9.068047e-04 9.667505e-04 1.933816e-04 6.015787e-04 1.351451e-06 1.107764e-03 1.269864e-04 1.394110e-04 1.403540e-03 1.551885e-03 1.929843e-03 
    69.5                1.754327e-04 5.542305e-04 5.380136e-04 8.953879e-05 3.216765e-04 6.986856e-07 6.134874e-04 6.122853e-05 6.813062e-05 7.520278e-04 8.577940e-04 1.062208e-03 
    70.5                4.463630e-05 2.776265e-04 2.303247e-04 3.242102e-05 1.331477e-04 2.934181e-07 2.615724e-04 2.300976e-05 2.592616e-05 3.116935e-04 3.734053e-04 4.588429e-04 
    71.5                5.843920e-06 1.000943e-04 6.193987e-05 8.677644e-06 3.576821e-05 9.931017e-08 7.046830e-05 5.798723e-06 6.559674e-06 8.341819e-05 1.177562e-04 1.389140e-04 
    72.5                1.281024e-07 1.753065e-05 8.627587e-06 1.034131e-06 4.801753e-06 1.779167e-08 9.809329e-06 8.169574e-07 9.210135e-07 1.126383e-05 1.901354e-05 2.170755e-05 
    73.5                0.000000e+00 1.352268e-06 4.287104e-07 3.206254e-08 2.185728e-07 1.598661e-09 4.881973e-07 3.399956e-08 3.906800e-08 5.246994e-07 1.384137e-06 1.472946e-06 
    74.5                0.000000e+00 0.000000e+00 0.000000e+00 0.000000e+00 0.000000e+00 0.000000e+00 0.000000e+00 0.000000e+00 0.000000e+00 0.000000e+00 0.000000e+00 0.000000e+00 
    75.5                0.000000e+00 0.000000e+00 0.000000e+00 0.000000e+00 0.000000e+00 0.000000e+00 0.000000e+00 0.000000e+00 0.000000e+00 0.000000e+00 0.000000e+00 0.000000e+00 
    76.5                0.000000e+00 0.000000e+00 0.000000e+00 0.000000e+00 0.000000e+00 0.000000e+00 0.000000e+00 0.000000e+00 0.000000e+00 0.000000e+00 0.000000e+00 0.000000e+00 
    77.5                0.000000e+00 0.000000e+00 0.000000e+00 0.000000e+00 0.000000e+00 0.000000e+00 0.000000e+00 0.000000e+00 0.000000e+00 0.000000e+00 0.000000e+00 0.000000e+00 
    78.5                0.000000e+00 0.000000e+00 0.000000e+00 0.000000e+00 0.000000e+00 0.000000e+00 0.000000e+00 0.000000e+00 0.000000e+00 0.000000e+00 0.000000e+00 0.000000e+00 
    79.5                0.000000e+00 0.000000e+00 0.000000e+00 0.000000e+00 0.000000e+00 0.000000e+00 0.000000e+00 0.000000e+00 0.000000e+00 0.000000e+00 0.000000e+00 0.000000e+00 


