# 80 rows of flux data
# 12 columns of flux data
# 
# total cross-sectional flux  2.155754e+00 /m^2/yr
#
#                             +x ram      -x wake      +y port -y starboard    +z zenith     -z nadir        Earth          Sun     anti-Sun      rot (x)      rot (y)      rot (z) 
# average speed (km/s)         24.66        23.83        20.25        20.80        19.62        24.28        24.28        24.67        24.68        23.64        24.27        23.68 
# total flux (#/m2/yr)  7.151418e-01 6.099504e-01 2.437951e-01 2.029995e-01 5.364752e-03 1.285989e+00 1.277193e+00 9.350852e-01 9.485603e-01 1.451535e+00 2.060845e+00 1.480670e+00 
# velocity (km/s)
     0.5                0.000000e+00 0.000000e+00 0.000000e+00 0.000000e+00 0.000000e+00 0.000000e+00 0.000000e+00 0.000000e+00 0.000000e+00 0.000000e+00 0.000000e+00 0.000000e+00 
     1.5                0.000000e+00 0.000000e+00 0.000000e+00 0.000000e+00 0.000000e+00 0.000000e+00 0.000000e+00 0.000000e+00 0.000000e+00 0.000000e+00 0.000000e+00 0.000000e+00 
     2.5                0.000000e+00 4.903839e-06 7.353221e-07 1.929643e-07 1.396269e-08 2.305116e-06 2.308166e-06 1.261822e-07 2.021087e-06 2.705614e-06 5.656493e-06 5.046452e-06 
     3.5                3.155848e-06 1.176155e-04 2.852709e-05 1.638583e-05 7.940792e-07 1.023619e-04 1.025067e-04 2.114856e-05 5.748996e-05 1.222679e-04 1.769356e-04 1.347951e-04 
     4.5                1.207894e-04 5.398919e-04 1.802148e-04 1.231970e-04 4.557874e-06 6.029052e-04 6.036794e-04 1.679418e-04 2.945009e-04 7.367028e-04 9.990108e-04 7.734715e-04 
     5.5                5.705765e-04 1.471232e-03 6.577993e-04 4.831087e-04 1.571160e-05 2.040651e-03 2.042359e-03 7.151982e-04 9.649418e-04 2.548220e-03 3.230693e-03 2.519105e-03 
     6.5                1.910113e-03 2.758318e-03 1.523216e-03 1.158082e-03 3.474616e-05 4.566538e-03 4.569382e-03 1.842346e-03 2.183408e-03 5.760428e-03 7.301173e-03 5.806182e-03 
     7.5                3.564222e-03 4.896555e-03 2.851063e-03 2.179422e-03 6.708938e-05 8.134477e-03 8.136284e-03 3.639485e-03 3.958415e-03 1.044314e-02 1.312073e-02 1.064053e-02 
     8.5                6.032160e-03 7.288893e-03 4.477484e-03 3.470848e-03 1.030254e-04 1.307767e-02 1.307509e-02 6.217374e-03 6.355476e-03 1.667342e-02 2.086591e-02 1.673726e-02 
     9.5                9.208176e-03 9.283796e-03 6.323699e-03 4.926744e-03 1.447411e-04 1.825262e-02 1.823647e-02 9.302378e-03 9.297767e-03 2.335673e-02 2.904862e-02 2.339966e-02 
    10.5                1.244530e-02 1.129255e-02 8.280140e-03 6.429760e-03 1.938290e-04 2.280523e-02 2.276453e-02 1.271110e-02 1.273749e-02 2.963989e-02 3.680021e-02 3.024670e-02 
    11.5                1.467971e-02 1.295323e-02 9.913859e-03 7.637742e-03 2.395143e-04 2.685570e-02 2.677773e-02 1.605679e-02 1.615679e-02 3.514475e-02 4.309478e-02 3.559211e-02 
    12.5                1.685042e-02 1.420164e-02 1.100765e-02 8.392477e-03 2.778090e-04 2.980301e-02 2.968381e-02 1.906448e-02 1.920257e-02 3.908402e-02 4.813943e-02 3.983238e-02 
    13.5                1.812138e-02 1.611979e-02 1.179482e-02 8.973665e-03 3.032220e-04 3.277551e-02 3.261542e-02 2.197893e-02 2.215157e-02 4.267763e-02 5.299744e-02 4.360357e-02 
    14.5                1.977213e-02 1.778348e-02 1.226452e-02 9.386175e-03 3.114744e-04 3.627070e-02 3.606578e-02 2.506225e-02 2.529402e-02 4.635289e-02 5.837596e-02 4.711821e-02 
    15.5                2.146445e-02 1.931325e-02 1.238385e-02 9.541931e-03 3.137250e-04 3.946597e-02 3.922008e-02 2.799533e-02 2.827431e-02 4.937079e-02 6.344276e-02 5.014184e-02 
    16.5                2.329217e-02 2.069297e-02 1.242009e-02 9.711662e-03 3.067581e-04 4.254501e-02 4.226015e-02 3.076029e-02 3.108468e-02 5.223023e-02 6.837862e-02 5.316126e-02 
    17.5                2.460990e-02 2.202354e-02 1.216508e-02 9.678232e-03 2.892188e-04 4.508362e-02 4.476156e-02 3.322713e-02 3.359043e-02 5.429742e-02 7.245700e-02 5.531305e-02 
    18.5                2.580732e-02 2.298335e-02 1.175456e-02 9.510102e-03 2.658041e-04 4.739636e-02 4.704134e-02 3.541008e-02 3.579873e-02 5.595883e-02 7.596533e-02 5.687313e-02 
    19.5                2.696362e-02 2.370594e-02 1.142359e-02 9.377933e-03 2.493070e-04 4.913693e-02 4.875442e-02 3.716476e-02 3.757964e-02 5.722288e-02 7.880322e-02 5.830424e-02 
    20.5                2.756237e-02 2.436351e-02 1.092382e-02 9.060595e-03 2.344201e-04 5.030113e-02 4.989829e-02 3.837174e-02 3.881437e-02 5.780193e-02 8.070086e-02 5.897326e-02 
    21.5                2.800757e-02 2.535787e-02 1.036396e-02 8.801753e-03 2.099854e-04 5.178862e-02 5.136633e-02 3.968398e-02 4.016519e-02 5.864202e-02 8.298821e-02 5.979053e-02 
    22.5                2.889503e-02 2.597579e-02 1.008877e-02 8.623787e-03 2.005969e-04 5.346119e-02 5.302105e-02 4.104954e-02 4.156865e-02 5.992864e-02 8.548692e-02 6.096036e-02 
    23.5                2.965183e-02 2.621222e-02 9.543118e-03 8.303038e-03 1.835032e-04 5.433667e-02 5.388654e-02 4.182256e-02 4.237033e-02 6.020924e-02 8.694391e-02 6.137036e-02 
    24.5                2.980648e-02 2.634117e-02 8.973232e-03 7.901436e-03 1.696829e-04 5.460362e-02 5.415091e-02 4.204059e-02 4.261701e-02 5.993223e-02 8.737070e-02 6.112357e-02 
    25.5                2.985349e-02 2.621972e-02 8.333556e-03 7.434958e-03 1.539846e-04 5.461249e-02 5.416273e-02 4.196607e-02 4.256543e-02 5.935855e-02 8.730858e-02 6.050518e-02 
    26.5                2.971783e-02 2.556048e-02 7.687713e-03 6.909482e-03 1.417937e-04 5.387488e-02 5.343447e-02 4.132749e-02 4.193518e-02 5.809587e-02 8.609592e-02 5.919587e-02 
    27.5                2.909638e-02 2.491013e-02 7.023653e-03 6.367682e-03 1.291340e-04 5.246516e-02 5.203928e-02 4.021994e-02 4.082705e-02 5.618280e-02 8.397396e-02 5.744801e-02 
    28.5                2.815823e-02 2.407228e-02 6.400552e-03 5.832533e-03 1.184054e-04 5.089176e-02 5.048467e-02 3.883130e-02 3.943344e-02 5.416391e-02 8.132632e-02 5.524650e-02 
    29.5                2.727951e-02 2.295450e-02 5.774382e-03 5.302387e-03 1.066774e-04 4.891150e-02 4.852597e-02 3.719263e-02 3.778479e-02 5.174589e-02 7.818274e-02 5.284685e-02 
    30.5                2.602659e-02 2.170884e-02 5.144348e-03 4.749301e-03 9.621906e-05 4.646578e-02 4.610645e-02 3.518345e-02 3.575514e-02 4.889587e-02 7.428358e-02 4.995824e-02 
    31.5                2.463770e-02 2.025203e-02 4.504345e-03 4.184056e-03 8.546097e-05 4.370057e-02 4.336994e-02 3.290977e-02 3.345515e-02 4.573736e-02 6.985737e-02 4.674379e-02 
    32.5                2.304197e-02 1.857372e-02 3.897395e-03 3.637997e-03 7.541511e-05 4.053283e-02 4.023458e-02 3.032004e-02 3.083125e-02 4.222508e-02 6.477607e-02 4.314360e-02 
    33.5                2.126533e-02 1.668609e-02 3.338094e-03 3.131025e-03 6.590027e-05 3.692140e-02 3.665741e-02 2.744035e-02 2.790795e-02 3.831576e-02 5.903637e-02 3.920533e-02 
    34.5                1.920266e-02 1.479814e-02 2.815510e-03 2.651539e-03 5.688373e-05 3.304854e-02 3.281984e-02 2.439518e-02 2.481486e-02 3.418270e-02 5.286677e-02 3.501617e-02 
    35.5                1.710681e-02 1.291757e-02 2.326629e-03 2.199690e-03 4.844951e-05 2.914664e-02 2.895148e-02 2.136170e-02 2.173367e-02 3.004889e-02 4.665490e-02 3.082305e-02 
    36.5                1.498359e-02 1.109367e-02 1.881961e-03 1.787617e-03 4.030267e-05 2.532095e-02 2.515820e-02 1.839588e-02 1.871767e-02 2.601783e-02 4.052395e-02 2.668878e-02 
    37.5                1.295317e-02 9.323713e-03 1.500487e-03 1.431449e-03 3.324049e-05 2.160910e-02 2.147593e-02 1.556226e-02 1.583708e-02 2.214124e-02 3.459931e-02 2.273896e-02 
    38.5                1.096157e-02 7.581386e-03 1.169945e-03 1.120857e-03 2.676506e-05 1.799790e-02 1.789208e-02 1.283570e-02 1.306213e-02 1.839414e-02 2.880901e-02 1.888442e-02 
    39.5                9.054697e-03 5.894931e-03 8.844467e-04 8.511483e-04 2.095284e-05 1.447774e-02 1.439699e-02 1.023161e-02 1.040970e-02 1.476443e-02 2.319934e-02 1.519296e-02 
    40.5                7.175524e-03 4.358725e-03 6.420224e-04 6.204816e-04 1.579730e-05 1.113112e-02 1.107253e-02 7.796855e-03 7.930740e-03 1.133075e-02 1.786934e-02 1.170121e-02 
    41.5                5.426718e-03 3.076160e-03 4.469334e-04 4.337293e-04 1.140624e-05 8.151805e-03 8.111384e-03 5.668129e-03 5.762576e-03 8.285623e-03 1.313054e-02 8.612555e-03 
    42.5                3.897211e-03 2.054186e-03 2.982027e-04 2.905305e-04 7.812044e-06 5.691356e-03 5.664988e-03 3.919052e-03 3.982883e-03 5.777333e-03 9.179506e-03 6.020803e-03 
    43.5                2.679821e-03 1.230902e-03 1.883016e-04 1.842628e-04 5.039157e-06 3.724017e-03 3.707997e-03 2.541229e-03 2.580906e-03 3.776503e-03 6.019528e-03 3.952580e-03 
    44.5                1.699848e-03 6.407947e-04 1.082641e-04 1.064737e-04 3.007660e-06 2.188885e-03 2.180199e-03 1.491672e-03 1.512439e-03 2.218539e-03 3.571161e-03 2.363418e-03 
    45.5                9.482533e-04 2.661094e-04 5.411717e-05 5.353726e-05 1.572786e-06 1.107933e-03 1.103932e-03 7.572964e-04 7.659003e-04 1.122636e-03 1.830913e-03 1.225160e-03 
    46.5                4.422796e-04 7.813092e-05 2.213108e-05 2.206992e-05 6.989007e-07 4.473162e-04 4.458503e-04 3.128716e-04 3.154310e-04 4.534928e-04 7.630607e-04 5.245240e-04 
    47.5                1.519220e-04 1.532372e-05 6.735838e-06 6.767095e-06 2.388179e-07 1.312337e-04 1.308492e-04 9.604193e-05 9.610672e-05 1.332333e-04 2.356494e-04 1.683850e-04 
    48.5                3.655663e-05 1.390897e-06 1.431741e-06 1.452215e-06 5.625141e-08 2.635449e-05 2.628907e-05 2.057011e-05 2.045175e-05 2.681300e-05 5.078167e-05 3.815732e-05 
    49.5                5.068006e-06 1.224300e-08 1.736956e-07 1.788324e-07 8.087618e-09 2.814294e-06 2.809387e-06 2.525257e-06 2.480709e-06 2.878010e-06 6.233329e-06 5.098989e-06 
    50.5                1.452981e-07 0.000000e+00 4.417817e-09 4.538687e-09 2.627349e-10 5.261119e-08 5.263989e-08 6.502379e-08 6.201303e-08 5.460431e-08 1.588274e-07 1.456414e-07 
    51.5                0.000000e+00 0.000000e+00 0.000000e+00 0.000000e+00 0.000000e+00 0.000000e+00 0.000000e+00 0.000000e+00 0.000000e+00 0.000000e+00 0.000000e+00 0.000000e+00 
    52.5                0.000000e+00 0.000000e+00 0.000000e+00 0.000000e+00 0.000000e+00 0.000000e+00 0.000000e+00 0.000000e+00 0.000000e+00 0.000000e+00 0.000000e+00 0.000000e+00 
    53.5                0.000000e+00 0.000000e+00 0.000000e+00 0.000000e+00 0.000000e+00 0.000000e+00 0.000000e+00 0.000000e+00 0.000000e+00 0.000000e+00 0.000000e+00 0.000000e+00 
    54.5                0.000000e+00 0.000000e+00 0.000000e+00 0.000000e+00 0.000000e+00 0.000000e+00 0.000000e+00 0.000000e+00 0.000000e+00 0.000000e+00 0.000000e+00 0.000000e+00 
    55.5                0.000000e+00 0.000000e+00 0.000000e+00 0.000000e+00 0.000000e+00 0.000000e+00 0.000000e+00 0.000000e+00 0.000000e+00 0.000000e+00 0.000000e+00 0.000000e+00 
    56.5                0.000000e+00 0.000000e+00 0.000000e+00 0.000000e+00 0.000000e+00 0.000000e+00 0.000000e+00 0.000000e+00 0.000000e+00 0.000000e+00 0.000000e+00 0.000000e+00 
    57.5                0.000000e+00 0.000000e+00 0.000000e+00 0.000000e+00 0.000000e+00 0.000000e+00 0.000000e+00 0.000000e+00 0.000000e+00 0.000000e+00 0.000000e+00 0.000000e+00 
    58.5                0.000000e+00 0.000000e+00 0.000000e+00 0.000000e+00 0.000000e+00 0.000000e+00 0.000000e+00 0.000000e+00 0.000000e+00 0.000000e+00 0.000000e+00 0.000000e+00 
    59.5                0.000000e+00 0.000000e+00 0.000000e+00 0.000000e+00 0.000000e+00 0.000000e+00 0.000000e+00 0.000000e+00 0.000000e+00 0.000000e+00 0.000000e+00 0.000000e+00 
    60.5                0.000000e+00 0.000000e+00 0.000000e+00 0.000000e+00 0.000000e+00 0.000000e+00 0.000000e+00 0.000000e+00 0.000000e+00 0.000000e+00 0.000000e+00 0.000000e+00 
    61.5                0.000000e+00 0.000000e+00 0.000000e+00 0.000000e+00 0.000000e+00 0.000000e+00 0.000000e+00 0.000000e+00 0.000000e+00 0.000000e+00 0.000000e+00 0.000000e+00 
    62.5                0.000000e+00 0.000000e+00 0.000000e+00 0.000000e+00 0.000000e+00 0.000000e+00 0.000000e+00 0.000000e+00 0.000000e+00 0.000000e+00 0.000000e+00 0.000000e+00 
    63.5                0.000000e+00 0.000000e+00 0.000000e+00 0.000000e+00 0.000000e+00 0.000000e+00 0.000000e+00 0.000000e+00 0.000000e+00 0.000000e+00 0.000000e+00 0.000000e+00 
    64.5                0.000000e+00 0.000000e+00 0.000000e+00 0.000000e+00 0.000000e+00 0.000000e+00 0.000000e+00 0.000000e+00 0.000000e+00 0.000000e+00 0.000000e+00 0.000000e+00 
    65.5                0.000000e+00 0.000000e+00 0.000000e+00 0.000000e+00 0.000000e+00 0.000000e+00 0.000000e+00 0.000000e+00 0.000000e+00 0.000000e+00 0.000000e+00 0.000000e+00 
    66.5                0.000000e+00 0.000000e+00 0.000000e+00 0.000000e+00 0.000000e+00 0.000000e+00 0.000000e+00 0.000000e+00 0.000000e+00 0.000000e+00 0.000000e+00 0.000000e+00 
    67.5                0.000000e+00 0.000000e+00 0.000000e+00 0.000000e+00 0.000000e+00 0.000000e+00 0.000000e+00 0.000000e+00 0.000000e+00 0.000000e+00 0.000000e+00 0.000000e+00 
    68.5                0.000000e+00 0.000000e+00 0.000000e+00 0.000000e+00 0.000000e+00 0.000000e+00 0.000000e+00 0.000000e+00 0.000000e+00 0.000000e+00 0.000000e+00 0.000000e+00 
    69.5                0.000000e+00 0.000000e+00 0.000000e+00 0.000000e+00 0.000000e+00 0.000000e+00 0.000000e+00 0.000000e+00 0.000000e+00 0.000000e+00 0.000000e+00 0.000000e+00 
    70.5                0.000000e+00 0.000000e+00 0.000000e+00 0.000000e+00 0.000000e+00 0.000000e+00 0.000000e+00 0.000000e+00 0.000000e+00 0.000000e+00 0.000000e+00 0.000000e+00 
    71.5                0.000000e+00 0.000000e+00 0.000000e+00 0.000000e+00 0.000000e+00 0.000000e+00 0.000000e+00 0.000000e+00 0.000000e+00 0.000000e+00 0.000000e+00 0.000000e+00 
    72.5                0.000000e+00 0.000000e+00 0.000000e+00 0.000000e+00 0.000000e+00 0.000000e+00 0.000000e+00 0.000000e+00 0.000000e+00 0.000000e+00 0.000000e+00 0.000000e+00 
    73.5                0.000000e+00 0.000000e+00 0.000000e+00 0.000000e+00 0.000000e+00 0.000000e+00 0.000000e+00 0.000000e+00 0.000000e+00 0.000000e+00 0.000000e+00 0.000000e+00 
    74.5                0.000000e+00 0.000000e+00 0.000000e+00 0.000000e+00 0.000000e+00 0.000000e+00 0.000000e+00 0.000000e+00 0.000000e+00 0.000000e+00 0.000000e+00 0.000000e+00 
    75.5                0.000000e+00 0.000000e+00 0.000000e+00 0.000000e+00 0.000000e+00 0.000000e+00 0.000000e+00 0.000000e+00 0.000000e+00 0.000000e+00 0.000000e+00 0.000000e+00 
    76.5                0.000000e+00 0.000000e+00 0.000000e+00 0.000000e+00 0.000000e+00 0.000000e+00 0.000000e+00 0.000000e+00 0.000000e+00 0.000000e+00 0.000000e+00 0.000000e+00 
    77.5                0.000000e+00 0.000000e+00 0.000000e+00 0.000000e+00 0.000000e+00 0.000000e+00 0.000000e+00 0.000000e+00 0.000000e+00 0.000000e+00 0.000000e+00 0.000000e+00 
    78.5                0.000000e+00 0.000000e+00 0.000000e+00 0.000000e+00 0.000000e+00 0.000000e+00 0.000000e+00 0.000000e+00 0.000000e+00 0.000000e+00 0.000000e+00 0.000000e+00 
    79.5                0.000000e+00 0.000000e+00 0.000000e+00 0.000000e+00 0.000000e+00 0.000000e+00 0.000000e+00 0.000000e+00 0.000000e+00 0.000000e+00 0.000000e+00 0.000000e+00 


