# 80 rows of flux data
# 12 columns of flux data
# 
# total cross-sectional flux  1.034763e+00 /m^2/yr
#
#                       +x vernal eq.           -x           +y           -y +z eclip. N. -z eclip. S.        Earth          Sun     anti-Sun      rot (x)      rot (y)      rot (z) 
# average speed (km/s)         37.59        37.70        37.65        37.68        43.74        31.63        37.76        27.95        28.00        33.92        33.91        37.65 
# total flux (#/m2/yr)  2.261171e-01 2.440743e-01 2.327678e-01 2.368943e-01 5.348042e-03 6.318772e-01 2.562373e-01 1.671876e-01 1.676716e-01 8.568311e-01 8.570424e-01 7.381241e-01 
# velocity (km/s)
     0.5                0.000000e+00 0.000000e+00 0.000000e+00 0.000000e+00 0.000000e+00 0.000000e+00 0.000000e+00 0.000000e+00 0.000000e+00 0.000000e+00 0.000000e+00 0.000000e+00 
     1.5                0.000000e+00 0.000000e+00 0.000000e+00 0.000000e+00 0.000000e+00 0.000000e+00 0.000000e+00 0.000000e+00 0.000000e+00 0.000000e+00 0.000000e+00 0.000000e+00 
     2.5                9.468536e-05 7.156908e-05 8.353611e-05 8.097904e-05 2.990338e-06 1.534825e-04 1.072277e-04 8.401503e-05 8.398729e-05 2.508892e-04 2.522641e-04 2.595728e-04 
     3.5                4.651015e-04 4.042755e-04 4.406178e-04 4.288638e-04 1.973002e-05 7.369743e-04 5.607173e-04 4.383431e-04 4.474152e-04 1.270467e-03 1.271576e-03 1.365231e-03 
     4.5                9.131261e-04 9.078070e-04 9.144477e-04 9.118808e-04 3.796417e-05 1.611377e-03 1.146562e-03 9.687986e-04 9.796148e-04 2.719494e-03 2.714655e-03 2.864129e-03 
     5.5                1.394733e-03 1.466626e-03 1.427109e-03 1.439057e-03 5.696296e-05 2.711979e-03 1.765358e-03 1.598319e-03 1.607105e-03 4.404761e-03 4.404068e-03 4.498395e-03 
     6.5                1.832483e-03 2.037192e-03 1.918459e-03 1.959621e-03 7.257597e-05 4.082792e-03 2.348113e-03 2.231619e-03 2.235347e-03 6.288175e-03 6.285025e-03 6.085642e-03 
     7.5                2.236167e-03 2.544953e-03 2.361062e-03 2.426522e-03 8.157297e-05 5.565954e-03 2.847259e-03 2.812707e-03 2.809583e-03 8.180187e-03 8.174969e-03 7.514574e-03 
     8.5                2.621349e-03 3.002403e-03 2.759522e-03 2.843355e-03 8.982180e-05 7.027465e-03 3.299838e-03 3.352054e-03 3.346643e-03 9.988215e-03 1.000232e-02 8.816524e-03 
     9.5                2.967485e-03 3.337470e-03 3.107556e-03 3.187522e-03 9.593861e-05 8.448125e-03 3.672419e-03 3.828298e-03 3.825569e-03 1.167007e-02 1.168087e-02 9.896583e-03 
    10.5                3.280766e-03 3.625524e-03 3.419971e-03 3.495679e-03 9.768606e-05 9.858120e-03 3.971932e-03 4.273766e-03 4.275076e-03 1.328460e-02 1.328494e-02 1.085655e-02 
    11.5                3.582406e-03 3.934840e-03 3.709851e-03 3.787484e-03 9.771716e-05 1.151618e-02 4.276372e-03 4.727399e-03 4.730433e-03 1.510040e-02 1.511502e-02 1.179215e-02 
    12.5                3.729455e-03 4.217391e-03 3.917907e-03 4.028701e-03 9.570081e-05 1.277975e-02 4.487176e-03 5.046498e-03 5.051426e-03 1.646360e-02 1.646672e-02 1.248211e-02 
    13.5                3.790312e-03 4.360107e-03 3.986105e-03 4.115549e-03 9.494624e-05 1.388388e-02 4.562853e-03 5.180320e-03 5.186762e-03 1.754405e-02 1.757218e-02 1.276297e-02 
    14.5                3.854557e-03 4.325512e-03 4.024801e-03 4.131671e-03 9.202426e-05 1.450813e-02 4.566847e-03 5.234581e-03 5.242806e-03 1.812009e-02 1.813571e-02 1.283022e-02 
    15.5                3.959923e-03 4.449733e-03 4.127848e-03 4.238667e-03 8.778848e-05 1.569408e-02 4.655802e-03 5.345397e-03 5.353439e-03 1.927442e-02 1.929092e-02 1.317392e-02 
    16.5                3.965997e-03 4.416997e-03 4.144503e-03 4.247061e-03 8.411963e-05 1.601178e-02 4.620432e-03 5.363260e-03 5.370104e-03 1.954444e-02 1.954302e-02 1.317415e-02 
    17.5                3.970053e-03 4.466716e-03 4.147815e-03 4.261133e-03 8.016820e-05 1.648769e-02 4.621923e-03 5.328091e-03 5.335402e-03 1.995476e-02 1.996811e-02 1.322869e-02 
    18.5                4.024395e-03 4.430421e-03 4.175555e-03 4.268568e-03 7.469012e-05 1.699485e-02 4.611776e-03 5.286891e-03 5.294168e-03 2.039515e-02 2.039725e-02 1.327236e-02 
    19.5                4.008756e-03 4.416093e-03 4.154959e-03 4.246345e-03 6.798515e-05 1.712773e-02 4.577044e-03 5.169165e-03 5.177115e-03 2.043348e-02 2.044063e-02 1.321792e-02 
    20.5                3.912522e-03 4.330417e-03 4.075805e-03 4.171373e-03 6.211039e-05 1.694473e-02 4.437696e-03 4.983102e-03 4.990012e-03 2.012644e-02 2.012688e-02 1.295274e-02 
    21.5                3.936338e-03 4.238995e-03 4.048354e-03 4.117716e-03 5.897951e-05 1.707828e-02 4.382078e-03 4.844929e-03 4.851224e-03 2.016549e-02 2.016610e-02 1.283522e-02 
    22.5                3.888923e-03 4.285743e-03 4.051134e-03 4.141563e-03 5.457437e-05 1.736714e-02 4.370894e-03 4.722636e-03 4.728341e-03 2.039314e-02 2.038009e-02 1.285190e-02 
    23.5                3.688355e-03 4.117211e-03 3.825049e-03 3.923772e-03 4.896235e-05 1.644870e-02 4.120669e-03 4.420326e-03 4.425717e-03 1.927981e-02 1.930621e-02 1.221776e-02 
    24.5                3.618749e-03 3.842155e-03 3.706499e-03 3.757277e-03 4.403791e-05 1.577329e-02 3.951958e-03 4.154104e-03 4.159243e-03 1.846242e-02 1.846555e-02 1.172135e-02 
    25.5                3.509821e-03 3.753896e-03 3.614860e-03 3.670935e-03 4.031000e-05 1.542182e-02 3.830517e-03 3.928302e-03 3.933198e-03 1.800970e-02 1.800338e-02 1.142580e-02 
    26.5                3.437416e-03 3.656275e-03 3.520525e-03 3.570289e-03 3.635348e-05 1.485869e-02 3.726960e-03 3.719385e-03 3.724049e-03 1.735674e-02 1.735865e-02 1.114071e-02 
    27.5                3.293292e-03 3.618650e-03 3.410354e-03 3.485246e-03 3.214762e-05 1.428127e-02 3.599512e-03 3.513675e-03 3.517211e-03 1.667682e-02 1.668267e-02 1.084057e-02 
    28.5                3.195659e-03 3.453082e-03 3.290173e-03 3.349778e-03 2.772421e-05 1.366747e-02 3.442476e-03 3.251110e-03 3.254546e-03 1.594129e-02 1.594913e-02 1.043683e-02 
    29.5                2.982611e-03 3.307822e-03 3.112366e-03 3.186371e-03 2.386550e-05 1.294180e-02 3.254108e-03 2.945605e-03 2.948844e-03 1.507093e-02 1.507267e-02 9.887331e-03 
    30.5                2.875563e-03 3.093607e-03 2.940038e-03 2.990624e-03 1.980971e-05 1.234305e-02 3.053171e-03 2.727646e-03 2.729986e-03 1.431402e-02 1.432743e-02 9.345979e-03 
    31.5                2.873412e-03 2.971394e-03 2.913234e-03 2.937083e-03 1.666933e-05 1.196835e-02 2.994713e-03 2.562421e-03 2.564719e-03 1.388905e-02 1.388469e-02 9.188695e-03 
    32.5                2.775473e-03 2.909710e-03 2.783841e-03 2.815384e-03 1.503474e-05 1.124091e-02 2.880565e-03 2.350470e-03 2.352919e-03 1.308631e-02 1.311309e-02 8.864370e-03 
    33.5                2.809632e-03 2.860990e-03 2.773567e-03 2.784997e-03 1.434155e-05 1.086245e-02 2.864667e-03 2.171854e-03 2.174365e-03 1.269889e-02 1.274424e-02 8.818716e-03 
    34.5                2.776662e-03 2.943974e-03 2.801720e-03 2.840821e-03 1.155977e-05 1.094302e-02 2.886897e-03 2.086943e-03 2.088549e-03 1.278599e-02 1.282306e-02 8.926616e-03 
    35.5                2.698650e-03 2.797080e-03 2.707292e-03 2.730727e-03 9.664107e-06 1.007915e-02 2.761109e-03 1.950357e-03 1.951566e-03 1.188922e-02 1.191264e-02 8.586082e-03 
    36.5                2.698597e-03 2.699534e-03 2.744938e-03 2.744349e-03 8.546237e-06 9.830512e-03 2.752244e-03 1.820653e-03 1.821788e-03 1.167717e-02 1.163434e-02 8.549739e-03 
    37.5                2.645412e-03 2.932363e-03 2.785653e-03 2.851389e-03 6.681680e-06 9.935579e-03 2.809421e-03 1.762950e-03 1.763747e-03 1.184770e-02 1.181759e-02 8.809976e-03 
    38.5                2.727732e-03 3.030085e-03 2.815691e-03 2.889097e-03 5.044329e-06 9.707295e-03 2.876659e-03 1.691068e-03 1.691872e-03 1.168850e-02 1.170980e-02 9.003954e-03 
    39.5                2.808476e-03 3.081321e-03 2.903217e-03 2.966708e-03 4.430784e-06 9.629262e-03 2.963884e-03 1.640186e-03 1.640846e-03 1.171072e-02 1.171642e-02 9.234569e-03 
    40.5                2.934307e-03 2.901979e-03 2.960410e-03 2.953882e-03 4.448390e-06 9.440943e-03 2.935687e-03 1.572501e-03 1.573389e-03 1.156546e-02 1.151944e-02 9.227385e-03 
    41.5                3.172423e-03 3.002987e-03 3.161491e-03 3.125017e-03 9.778190e-06 9.473321e-03 3.141137e-03 1.554879e-03 1.556395e-03 1.182904e-02 1.176101e-02 9.782097e-03 
    42.5                3.214593e-03 3.240136e-03 3.217766e-03 3.225168e-03 1.572179e-05 9.219396e-03 3.285065e-03 1.548508e-03 1.550806e-03 1.173041e-02 1.174106e-02 1.012843e-02 
    43.5                3.285092e-03 3.217269e-03 3.213688e-03 3.193231e-03 1.600294e-05 8.780685e-03 3.258429e-03 1.500301e-03 1.502869e-03 1.135595e-02 1.141483e-02 1.013371e-02 
    44.5                3.604516e-03 3.418122e-03 3.501601e-03 3.457098e-03 1.098193e-05 9.152082e-03 3.543361e-03 1.546060e-03 1.548195e-03 1.201292e-02 1.204545e-02 1.098009e-02 
    45.5                3.569787e-03 3.801846e-03 3.570062e-03 3.623951e-03 7.971489e-06 9.189205e-03 3.645727e-03 1.549625e-03 1.550742e-03 1.218362e-02 1.230574e-02 1.142743e-02 
    46.5                3.677726e-03 3.717944e-03 3.630887e-03 3.643150e-03 1.923067e-05 8.934802e-03 3.730557e-03 1.515208e-03 1.518069e-03 1.205213e-02 1.215368e-02 1.151947e-02 
    47.5                3.899351e-03 3.796845e-03 3.864990e-03 3.843508e-03 3.057363e-05 8.859366e-03 3.944232e-03 1.540252e-03 1.544583e-03 1.234444e-02 1.233857e-02 1.210583e-02 
    48.5                4.173830e-03 4.123635e-03 4.080873e-03 4.068113e-03 3.856046e-05 8.812358e-03 4.257507e-03 1.590044e-03 1.595187e-03 1.265223e-02 1.274846e-02 1.291829e-02 
    49.5                4.717569e-03 4.347351e-03 4.507648e-03 4.422925e-03 4.270313e-05 9.100062e-03 4.619589e-03 1.650126e-03 1.655458e-03 1.344826e-02 1.354324e-02 1.413698e-02 
    50.5                5.352195e-03 4.627667e-03 5.112601e-03 4.945716e-03 5.383683e-05 9.430259e-03 5.176119e-03 1.735554e-03 1.742025e-03 1.454762e-02 1.449686e-02 1.573187e-02 
    51.5                5.980713e-03 5.318519e-03 5.803267e-03 5.650770e-03 9.864110e-05 9.715945e-03 6.036483e-03 1.826995e-03 1.837883e-03 1.589476e-02 1.578566e-02 1.787867e-02 
    52.5                6.004785e-03 5.969861e-03 6.120270e-03 6.120493e-03 1.439710e-04 9.501436e-03 6.544182e-03 1.882524e-03 1.897591e-03 1.643046e-02 1.623498e-02 1.902882e-02 
    53.5                5.881342e-03 6.391245e-03 6.160303e-03 6.281479e-03 1.864097e-04 9.045019e-03 6.816212e-03 1.903802e-03 1.923716e-03 1.633706e-02 1.620264e-02 1.941050e-02 
    54.5                5.827229e-03 6.414308e-03 6.059203e-03 6.197901e-03 2.245706e-04 8.539877e-03 6.887420e-03 1.889789e-03 1.912685e-03 1.587510e-02 1.585855e-02 1.923552e-02 
    55.5                5.929155e-03 6.292706e-03 5.972559e-03 6.056966e-03 2.380641e-04 8.134746e-03 6.800919e-03 1.868614e-03 1.891683e-03 1.543477e-02 1.557866e-02 1.903963e-02 
    56.5                5.750874e-03 6.052931e-03 5.862950e-03 5.935656e-03 2.407629e-04 7.709754e-03 6.731109e-03 1.830105e-03 1.854400e-03 1.496498e-02 1.496084e-02 1.853501e-02 
    57.5                5.217930e-03 5.775771e-03 5.475465e-03 5.604364e-03 2.286254e-04 6.981279e-03 6.315627e-03 1.741919e-03 1.765237e-03 1.387966e-02 1.381221e-02 1.733706e-02 
    58.5                4.900257e-03 5.475236e-03 5.114330e-03 5.251394e-03 2.196464e-04 6.308668e-03 5.934251e-03 1.616761e-03 1.638188e-03 1.284392e-02 1.285202e-02 1.628795e-02 
    59.5                4.737911e-03 5.183653e-03 4.875347e-03 4.979054e-03 2.135845e-04 5.814312e-03 5.663477e-03 1.488150e-03 1.507826e-03 1.209243e-02 1.214586e-02 1.552670e-02 
    60.5                4.366658e-03 4.967659e-03 4.580190e-03 4.718781e-03 2.248305e-04 5.249859e-03 5.386893e-03 1.334499e-03 1.354096e-03 1.127843e-02 1.130680e-02 1.463411e-02 
    61.5                3.857611e-03 4.571292e-03 4.110077e-03 4.272354e-03 2.285507e-04 4.475790e-03 4.976447e-03 1.171495e-03 1.191028e-03 1.003182e-02 1.006849e-02 1.320752e-02 
    62.5                3.247222e-03 4.064113e-03 3.533224e-03 3.722519e-03 2.088411e-04 3.692521e-03 4.320217e-03 1.003214e-03 1.021059e-03 8.586061e-03 8.624117e-03 1.143881e-02 
    63.5                2.563002e-03 3.374340e-03 2.907189e-03 3.094930e-03 1.776488e-04 2.908080e-03 3.564302e-03 8.280923e-04 8.430293e-04 7.013779e-03 6.962045e-03 9.371063e-03 
    64.5                2.098733e-03 2.769328e-03 2.347188e-03 2.501501e-03 1.512319e-04 2.295323e-03 2.922001e-03 6.574943e-04 6.699387e-04 5.640532e-03 5.657603e-03 7.633240e-03 
    65.5                1.620279e-03 2.174099e-03 1.872708e-03 2.000633e-03 1.296423e-04 1.721965e-03 2.351553e-03 4.981012e-04 5.087979e-04 4.447384e-03 4.380779e-03 6.022616e-03 
    66.5                1.185661e-03 1.719866e-03 1.413686e-03 1.538364e-03 1.049107e-04 1.244415e-03 1.822526e-03 3.581089e-04 3.668640e-04 3.358944e-03 3.316288e-03 4.601137e-03 
    67.5                7.770563e-04 1.254714e-03 9.802966e-04 1.091123e-03 8.100705e-05 8.123008e-04 1.295774e-03 2.344776e-04 2.411333e-04 2.329107e-03 2.293709e-03 3.222692e-03 
    68.5                4.505068e-04 8.612374e-04 6.131350e-04 7.070332e-04 6.161922e-05 4.711320e-04 8.636318e-04 1.357799e-04 1.407490e-04 1.466538e-03 1.458965e-03 2.067122e-03 
    69.5                2.019937e-04 5.328432e-04 3.297455e-04 4.057206e-04 4.023861e-05 2.314663e-04 5.056067e-04 6.587437e-05 6.929416e-05 8.063114e-04 8.041675e-04 1.154075e-03 
    70.5                6.081534e-05 2.666583e-04 1.302405e-04 1.767023e-04 1.882173e-05 8.482584e-05 2.282387e-04 2.454196e-05 2.634298e-05 3.332736e-04 3.507177e-04 4.981923e-04 
    71.5                1.052534e-05 9.049971e-05 3.410154e-05 5.222693e-05 4.792625e-06 2.051767e-05 6.353532e-05 6.054980e-06 6.605524e-06 9.258331e-05 1.056430e-04 1.471488e-04 
    72.5                4.261720e-07 1.637031e-05 4.237114e-06 7.925393e-06 5.662305e-07 2.273256e-06 9.134831e-06 8.482214e-07 9.326513e-07 1.284363e-05 1.714123e-05 2.275783e-05 
    73.5                1.401412e-11 1.331155e-06 1.699349e-07 4.830070e-07 2.487325e-08 6.897598e-08 4.736008e-07 3.597374e-08 4.051161e-08 6.702603e-07 1.335988e-06 1.560605e-06 
    74.5                0.000000e+00 0.000000e+00 0.000000e+00 0.000000e+00 0.000000e+00 0.000000e+00 0.000000e+00 0.000000e+00 0.000000e+00 0.000000e+00 0.000000e+00 0.000000e+00 
    75.5                0.000000e+00 0.000000e+00 0.000000e+00 0.000000e+00 0.000000e+00 0.000000e+00 0.000000e+00 0.000000e+00 0.000000e+00 0.000000e+00 0.000000e+00 0.000000e+00 
    76.5                0.000000e+00 0.000000e+00 0.000000e+00 0.000000e+00 0.000000e+00 0.000000e+00 0.000000e+00 0.000000e+00 0.000000e+00 0.000000e+00 0.000000e+00 0.000000e+00 
    77.5                0.000000e+00 0.000000e+00 0.000000e+00 0.000000e+00 0.000000e+00 0.000000e+00 0.000000e+00 0.000000e+00 0.000000e+00 0.000000e+00 0.000000e+00 0.000000e+00 
    78.5                0.000000e+00 0.000000e+00 0.000000e+00 0.000000e+00 0.000000e+00 0.000000e+00 0.000000e+00 0.000000e+00 0.000000e+00 0.000000e+00 0.000000e+00 0.000000e+00 
    79.5                0.000000e+00 0.000000e+00 0.000000e+00 0.000000e+00 0.000000e+00 0.000000e+00 0.000000e+00 0.000000e+00 0.000000e+00 0.000000e+00 0.000000e+00 0.000000e+00 


