# 80 rows of flux data
# 12 columns of flux data
# 
# total cross-sectional flux  1.003142e+00 /m^2/yr
#
#                             +x ram      -x wake      +y port -y starboard    +z zenith     -z nadir        Earth          Sun     anti-Sun      rot (x)      rot (y)      rot (z) 
# average speed (km/s)         37.70        37.71        39.47        27.79        35.68        33.58        37.74        28.18        28.18        33.84        36.72        34.51 
# total flux (#/m2/yr)  2.295614e-01 2.295120e-01 2.153718e-01 3.644138e-01 4.604428e-01 4.059889e-04 2.289312e-01 1.577787e-01 1.577310e-01 8.283810e-01 7.245732e-01 8.094526e-01 
# velocity (km/s)
     0.5                0.000000e+00 0.000000e+00 0.000000e+00 0.000000e+00 0.000000e+00 0.000000e+00 0.000000e+00 0.000000e+00 0.000000e+00 0.000000e+00 0.000000e+00 0.000000e+00 
     1.5                0.000000e+00 0.000000e+00 0.000000e+00 0.000000e+00 0.000000e+00 0.000000e+00 0.000000e+00 0.000000e+00 0.000000e+00 0.000000e+00 0.000000e+00 0.000000e+00 
     2.5                8.954578e-05 9.042933e-05 9.872903e-05 5.161674e-05 1.988374e-04 3.697528e-08 8.985066e-05 9.318008e-05 9.312301e-05 2.729962e-04 2.964269e-04 2.594235e-04 
     3.5                4.593956e-04 4.595415e-04 4.732803e-04 3.221394e-04 8.673081e-04 4.238835e-07 4.569474e-04 4.718084e-04 4.715767e-04 1.309062e-03 1.407803e-03 1.337026e-03 
     4.5                8.891874e-04 8.882591e-04 8.665524e-04 7.651293e-04 1.625941e-03 1.078821e-06 8.831444e-04 9.478870e-04 9.474849e-04 2.569271e-03 2.688386e-03 2.659292e-03 
     5.5                1.352503e-03 1.351334e-03 1.296258e-03 1.366043e-03 2.482218e-03 1.883782e-06 1.343394e-03 1.494784e-03 1.494249e-03 4.067433e-03 4.095826e-03 4.183159e-03 
     6.5                1.798441e-03 1.795947e-03 1.670320e-03 2.205680e-03 3.357609e-03 2.775765e-06 1.785963e-03 2.021892e-03 2.021437e-03 5.724586e-03 5.492847e-03 5.834308e-03 
     7.5                2.215216e-03 2.211588e-03 2.008025e-03 3.174750e-03 4.259294e-03 3.624727e-06 2.199247e-03 2.530790e-03 2.530007e-03 7.464064e-03 6.856994e-03 7.509332e-03 
     8.5                2.607519e-03 2.603854e-03 2.312203e-03 4.160203e-03 5.111094e-03 4.408118e-06 2.589496e-03 3.030611e-03 3.029961e-03 9.159171e-03 8.145566e-03 9.147761e-03 
     9.5                2.913978e-03 2.909806e-03 2.506977e-03 5.182081e-03 5.850982e-03 5.153596e-06 2.893697e-03 3.451810e-03 3.451137e-03 1.069711e-02 9.210105e-03 1.059084e-02 
    10.5                3.234402e-03 3.230288e-03 2.755414e-03 6.203216e-03 6.661267e-03 5.890155e-06 3.211895e-03 3.916341e-03 3.915349e-03 1.233363e-02 1.034887e-02 1.210072e-02 
    11.5                3.507802e-03 3.502789e-03 2.902904e-03 7.483656e-03 7.447858e-03 6.575392e-06 3.483946e-03 4.322260e-03 4.321086e-03 1.406374e-02 1.140254e-02 1.369314e-02 
    12.5                3.723228e-03 3.717981e-03 2.968034e-03 8.466966e-03 8.020897e-03 7.229888e-06 3.698235e-03 4.576137e-03 4.575414e-03 1.532985e-02 1.218321e-02 1.484937e-02 
    13.5                3.808596e-03 3.802734e-03 2.955859e-03 9.455378e-03 8.414038e-03 7.491098e-06 3.784352e-03 4.706157e-03 4.704884e-03 1.640765e-02 1.263316e-02 1.582457e-02 
    14.5                3.856183e-03 3.850736e-03 2.992627e-03 9.994774e-03 8.828316e-03 7.655092e-06 3.832695e-03 4.793580e-03 4.792260e-03 1.713703e-02 1.304148e-02 1.638128e-02 
    15.5                3.983717e-03 3.978651e-03 2.975189e-03 1.105721e-02 9.263586e-03 7.899788e-06 3.960548e-03 4.939958e-03 4.939085e-03 1.830319e-02 1.357146e-02 1.743841e-02 
    16.5                4.003114e-03 3.998007e-03 3.008126e-03 1.134856e-02 9.428038e-03 8.036031e-06 3.980422e-03 4.986427e-03 4.985275e-03 1.868820e-02 1.373438e-02 1.774354e-02 
    17.5                4.020706e-03 4.016307e-03 2.987774e-03 1.175558e-02 9.582373e-03 8.332435e-06 3.999356e-03 4.932681e-03 4.931469e-03 1.910412e-02 1.388351e-02 1.808551e-02 
    18.5                4.061494e-03 4.056213e-03 2.993719e-03 1.219682e-02 9.828094e-03 8.445456e-06 4.039650e-03 4.942676e-03 4.941492e-03 1.963670e-02 1.413768e-02 1.849811e-02 
    19.5                4.063868e-03 4.060018e-03 2.925532e-03 1.233946e-02 9.796030e-03 8.511806e-06 4.044020e-03 4.816835e-03 4.816024e-03 1.967847e-02 1.409994e-02 1.853484e-02 
    20.5                3.960624e-03 3.957823e-03 2.908741e-03 1.220411e-02 9.622234e-03 8.751811e-06 3.941836e-03 4.663626e-03 4.662309e-03 1.944739e-02 1.379824e-02 1.823545e-02 
    21.5                3.983359e-03 3.979372e-03 2.972275e-03 1.229013e-02 9.735137e-03 9.142866e-06 3.964796e-03 4.589105e-03 4.587933e-03 1.964964e-02 1.393011e-02 1.837804e-02 
    22.5                3.967446e-03 3.963702e-03 2.851879e-03 1.254324e-02 9.671401e-03 9.427960e-06 3.949979e-03 4.420403e-03 4.419452e-03 1.970652e-02 1.384638e-02 1.843276e-02 
    23.5                3.766321e-03 3.763645e-03 2.782399e-03 1.182893e-02 9.158985e-03 9.257509e-06 3.750513e-03 4.158735e-03 4.158334e-03 1.872211e-02 1.312151e-02 1.748176e-02 
    24.5                3.636724e-03 3.633774e-03 2.708359e-03 1.130136e-02 8.834518e-03 9.330310e-06 3.621432e-03 3.916921e-03 3.915541e-03 1.799239e-02 1.265781e-02 1.675691e-02 
    25.5                3.555431e-03 3.553495e-03 2.632492e-03 1.105899e-02 8.569573e-03 9.382522e-06 3.540701e-03 3.727195e-03 3.726632e-03 1.756196e-02 1.231441e-02 1.635835e-02 
    26.5                3.483559e-03 3.481166e-03 2.690191e-03 1.058844e-02 8.338465e-03 9.371422e-06 3.469575e-03 3.548502e-03 3.547507e-03 1.708036e-02 1.201292e-02 1.587820e-02 
    27.5                3.388508e-03 3.385496e-03 2.652743e-03 1.007410e-02 7.910927e-03 9.221037e-06 3.373864e-03 3.337753e-03 3.336945e-03 1.635473e-02 1.151687e-02 1.523734e-02 
    28.5                3.266323e-03 3.265755e-03 2.684794e-03 9.500114e-03 7.617220e-03 8.869184e-06 3.255575e-03 3.066238e-03 3.065583e-03 1.570555e-02 1.109853e-02 1.458554e-02 
    29.5                3.083872e-03 3.080735e-03 2.461552e-03 8.921894e-03 7.082425e-03 8.456228e-06 3.071228e-03 2.782860e-03 2.782385e-03 1.465166e-02 1.039235e-02 1.363851e-02 
    30.5                2.931137e-03 2.929433e-03 2.459724e-03 8.531350e-03 6.838655e-03 8.082816e-06 2.921147e-03 2.619550e-03 2.618718e-03 1.415991e-02 9.960045e-03 1.310873e-02 
    31.5                2.910722e-03 2.909275e-03 2.503737e-03 8.193044e-03 6.680737e-03 8.167789e-06 2.901578e-03 2.450043e-03 2.449556e-03 1.382372e-02 9.793581e-03 1.278520e-02 
    32.5                2.816212e-03 2.814894e-03 2.534715e-03 7.524551e-03 6.267024e-03 8.096868e-06 2.807669e-03 2.257218e-03 2.256465e-03 1.303916e-02 9.333461e-03 1.210925e-02 
    33.5                2.812994e-03 2.812411e-03 2.642628e-03 7.056007e-03 6.225545e-03 7.797468e-06 2.805922e-03 2.104508e-03 2.103853e-03 1.271863e-02 9.300173e-03 1.176836e-02 
    34.5                2.858473e-03 2.856065e-03 2.689242e-03 7.107220e-03 6.213310e-03 7.754100e-06 2.849914e-03 2.039492e-03 2.038883e-03 1.281500e-02 9.351567e-03 1.188482e-02 
    35.5                2.754328e-03 2.756116e-03 2.729260e-03 6.309001e-03 5.809972e-03 7.438265e-06 2.749344e-03 1.898569e-03 1.898083e-03 1.193247e-02 8.885530e-03 1.111147e-02 
    36.5                2.751229e-03 2.750533e-03 2.819684e-03 5.982150e-03 5.827786e-03 7.401477e-06 2.745822e-03 1.772839e-03 1.772257e-03 1.174047e-02 8.904421e-03 1.089430e-02 
    37.5                2.847523e-03 2.848499e-03 2.932983e-03 5.965900e-03 5.941307e-03 7.272853e-06 2.842576e-03 1.732131e-03 1.731403e-03 1.193999e-02 9.139827e-03 1.110213e-02 
    38.5                2.993313e-03 2.994243e-03 3.264815e-03 5.642791e-03 6.174023e-03 7.035123e-06 2.990027e-03 1.687716e-03 1.687302e-03 1.215874e-02 9.556518e-03 1.131513e-02 
    39.5                2.968592e-03 2.971454e-03 3.153239e-03 5.430405e-03 5.935522e-03 7.038028e-06 2.966805e-03 1.617915e-03 1.617261e-03 1.171254e-02 9.345428e-03 1.100605e-02 
    40.5                2.987716e-03 2.990768e-03 3.287682e-03 5.213105e-03 6.024441e-03 6.813627e-06 2.985705e-03 1.551247e-03 1.550649e-03 1.171974e-02 9.442291e-03 1.095487e-02 
    41.5                3.279062e-03 3.281626e-03 3.693227e-03 5.022201e-03 6.468157e-03 6.758895e-06 3.276993e-03 1.586009e-03 1.585696e-03 1.227561e-02 1.024819e-02 1.155219e-02 
    42.5                3.275493e-03 3.276100e-03 3.596493e-03 4.639607e-03 6.222879e-03 6.586305e-06 3.271367e-03 1.534036e-03 1.533082e-03 1.169992e-02 1.006760e-02 1.116041e-02 
    43.5                3.323785e-03 3.325604e-03 3.798498e-03 4.193741e-03 6.424514e-03 6.135936e-06 3.319817e-03 1.514770e-03 1.514028e-03 1.168488e-02 1.029895e-02 1.108303e-02 
    44.5                3.663202e-03 3.664907e-03 4.202705e-03 4.261759e-03 6.989934e-03 6.337639e-06 3.660986e-03 1.588500e-03 1.587802e-03 1.254311e-02 1.128416e-02 1.195720e-02 
    45.5                3.703598e-03 3.707017e-03 4.183462e-03 4.087825e-03 6.909013e-03 6.308207e-06 3.701623e-03 1.528556e-03 1.527954e-03 1.233058e-02 1.129538e-02 1.186231e-02 
    46.5                3.790554e-03 3.788532e-03 4.261460e-03 3.873637e-03 7.025623e-03 6.141868e-06 3.782900e-03 1.524788e-03 1.524209e-03 1.229780e-02 1.151455e-02 1.190697e-02 
    47.5                3.965149e-03 3.969410e-03 4.486466e-03 3.656519e-03 7.404803e-03 5.919093e-06 3.964192e-03 1.577820e-03 1.577017e-03 1.261559e-02 1.209703e-02 1.222408e-02 
    48.5                4.371676e-03 4.372738e-03 4.884909e-03 3.446862e-03 7.997239e-03 5.960833e-06 4.366515e-03 1.616516e-03 1.615612e-03 1.325963e-02 1.319961e-02 1.305066e-02 
    49.5                4.668353e-03 4.673269e-03 5.305309e-03 3.363327e-03 8.700051e-03 5.988048e-06 4.666600e-03 1.694565e-03 1.693732e-03 1.410243e-02 1.422895e-02 1.379753e-02 
    50.5                5.361186e-03 5.372614e-03 5.975238e-03 3.286745e-03 9.862799e-03 6.299711e-06 5.364619e-03 1.795621e-03 1.794853e-03 1.548417e-02 1.622964e-02 1.537844e-02 
    51.5                6.033032e-03 6.043161e-03 6.500943e-03 3.147458e-03 1.077676e-02 6.703749e-06 6.035199e-03 1.865931e-03 1.864936e-03 1.649191e-02 1.802455e-02 1.679645e-02 
    52.5                6.145146e-03 6.142039e-03 6.443192e-03 2.865413e-03 1.072323e-02 6.781647e-06 6.134556e-03 1.889591e-03 1.888588e-03 1.613634e-02 1.816787e-02 1.675508e-02 
    53.5                6.230506e-03 6.229008e-03 6.483141e-03 2.589194e-03 1.081381e-02 6.553630e-06 6.222024e-03 1.890776e-03 1.889724e-03 1.598508e-02 1.836771e-02 1.675895e-02 
    54.5                5.967779e-03 5.970019e-03 6.085406e-03 2.343296e-03 1.017029e-02 6.406067e-06 5.962131e-03 1.848374e-03 1.847553e-03 1.494794e-02 1.748260e-02 1.588762e-02 
    55.5                5.931772e-03 5.936782e-03 6.113463e-03 2.111161e-03 1.020736e-02 6.013881e-06 5.929169e-03 1.826086e-03 1.825060e-03 1.480548e-02 1.742837e-02 1.571235e-02 
    56.5                5.724422e-03 5.725215e-03 5.808784e-03 1.981342e-03 9.727511e-03 5.884367e-06 5.718220e-03 1.765055e-03 1.764192e-03 1.406600e-02 1.673261e-02 1.505543e-02 
    57.5                5.259800e-03 5.261756e-03 5.255987e-03 1.701496e-03 8.864515e-03 5.413896e-06 5.255178e-03 1.637614e-03 1.636820e-03 1.268521e-02 1.533109e-02 1.371079e-02 
    58.5                5.020712e-03 5.021055e-03 5.025069e-03 1.456683e-03 8.466314e-03 4.936193e-06 5.014859e-03 1.506241e-03 1.505472e-03 1.198091e-02 1.462085e-02 1.299523e-02 
    59.5                4.786551e-03 4.786103e-03 4.772666e-03 1.299744e-03 8.058612e-03 4.651025e-06 4.780567e-03 1.372788e-03 1.372318e-03 1.130012e-02 1.392731e-02 1.231764e-02 
    60.5                4.369848e-03 4.375126e-03 4.312393e-03 1.099536e-03 7.312973e-03 4.294332e-06 4.370090e-03 1.202282e-03 1.201641e-03 1.015412e-02 1.269857e-02 1.117451e-02 
    61.5                3.948599e-03 3.951441e-03 3.741178e-03 9.112650e-04 6.369548e-03 3.882713e-06 3.946974e-03 1.044548e-03 1.044074e-03 8.771442e-03 1.128932e-02 9.936500e-03 
    62.5                3.226948e-03 3.221558e-03 3.054112e-03 6.775305e-04 5.198467e-03 3.201561e-06 3.218439e-03 8.678907e-04 8.673557e-04 7.101236e-03 9.221932e-03 8.082240e-03 
    63.5                2.642005e-03 2.641545e-03 2.482604e-03 5.262049e-04 4.237523e-03 2.579490e-06 2.638728e-03 7.008816e-04 7.005417e-04 5.749679e-03 7.536853e-03 6.589304e-03 
    64.5                2.111447e-03 2.111260e-03 1.979742e-03 3.914798e-04 3.383804e-03 2.080843e-06 2.108965e-03 5.374987e-04 5.372534e-04 4.556660e-03 6.025856e-03 5.248862e-03 
    65.5                1.662366e-03 1.660174e-03 1.507986e-03 2.823093e-04 2.581056e-03 1.641548e-06 1.658556e-03 3.948794e-04 3.946765e-04 3.450960e-03 4.679113e-03 4.080867e-03 
    66.5                1.207107e-03 1.204953e-03 1.069756e-03 1.908083e-04 1.833642e-03 1.218570e-06 1.204008e-03 2.663586e-04 2.662078e-04 2.434940e-03 3.368169e-03 2.937711e-03 
    67.5                7.903075e-04 7.898310e-04 6.836418e-04 1.151271e-04 1.173519e-03 8.286377e-07 7.893076e-04 1.596047e-04 1.595287e-04 1.543321e-03 2.188869e-03 1.907099e-03 
    68.5                4.748476e-04 4.747353e-04 3.842540e-04 6.109939e-05 6.595157e-04 5.195811e-07 4.744813e-04 8.127193e-05 8.122539e-05 8.604372e-04 1.281682e-03 1.124008e-03 
    69.5                2.272049e-04 2.261167e-04 1.695517e-04 2.560547e-05 2.913474e-04 2.664152e-07 2.261302e-04 3.226153e-05 3.223223e-05 3.763273e-04 5.953423e-04 5.258952e-04 
    70.5                7.300128e-05 7.260144e-05 4.365805e-05 7.698570e-06 7.494267e-05 1.079768e-07 7.258535e-05 8.121118e-06 8.115437e-06 9.723709e-05 1.790678e-04 1.623597e-04 
    71.5                1.194088e-05 1.185437e-05 5.752360e-06 9.783677e-07 9.888762e-06 2.190997e-08 1.184748e-05 1.078668e-06 1.076686e-06 1.265193e-05 2.778295e-05 2.568801e-05 
    72.5                7.015497e-07 6.922778e-07 1.287444e-07 3.127653e-08 2.170242e-07 2.268624e-09 6.906389e-07 3.375313e-08 3.358958e-08 2.895006e-07 1.425318e-06 1.407916e-06 
    73.5                0.000000e+00 0.000000e+00 0.000000e+00 0.000000e+00 0.000000e+00 0.000000e+00 0.000000e+00 0.000000e+00 0.000000e+00 0.000000e+00 0.000000e+00 0.000000e+00 
    74.5                0.000000e+00 0.000000e+00 0.000000e+00 0.000000e+00 0.000000e+00 0.000000e+00 0.000000e+00 0.000000e+00 0.000000e+00 0.000000e+00 0.000000e+00 0.000000e+00 
    75.5                0.000000e+00 0.000000e+00 0.000000e+00 0.000000e+00 0.000000e+00 0.000000e+00 0.000000e+00 0.000000e+00 0.000000e+00 0.000000e+00 0.000000e+00 0.000000e+00 
    76.5                0.000000e+00 0.000000e+00 0.000000e+00 0.000000e+00 0.000000e+00 0.000000e+00 0.000000e+00 0.000000e+00 0.000000e+00 0.000000e+00 0.000000e+00 0.000000e+00 
    77.5                0.000000e+00 0.000000e+00 0.000000e+00 0.000000e+00 0.000000e+00 0.000000e+00 0.000000e+00 0.000000e+00 0.000000e+00 0.000000e+00 0.000000e+00 0.000000e+00 
    78.5                0.000000e+00 0.000000e+00 0.000000e+00 0.000000e+00 0.000000e+00 0.000000e+00 0.000000e+00 0.000000e+00 0.000000e+00 0.000000e+00 0.000000e+00 0.000000e+00 
    79.5                0.000000e+00 0.000000e+00 0.000000e+00 0.000000e+00 0.000000e+00 0.000000e+00 0.000000e+00 0.000000e+00 0.000000e+00 0.000000e+00 0.000000e+00 0.000000e+00 


