# 80 rows of flux data
# 12 columns of flux data
# 
# total cross-sectional flux  1.027108e+00 /m^2/yr
#
#                             +x ram      -x wake      +y port -y starboard    +z zenith     -z nadir        Earth          Sun     anti-Sun      rot (x)      rot (y)      rot (z) 
# average speed (km/s)         37.39        37.39        37.06        37.60        31.64        20.81        37.45        27.78        27.78        33.71        33.73        37.36 
# total flux (#/m2/yr)  2.320251e-01 2.319077e-01 2.287290e-01 2.354795e-01 6.354817e-01 6.186789e-05 2.310761e-01 1.672096e-01 1.672278e-01 8.525881e-01 8.517885e-01 7.289550e-01 
# velocity (km/s)
     0.5                0.000000e+00 0.000000e+00 0.000000e+00 0.000000e+00 0.000000e+00 0.000000e+00 0.000000e+00 0.000000e+00 0.000000e+00 0.000000e+00 0.000000e+00 0.000000e+00 
     1.5                0.000000e+00 0.000000e+00 0.000000e+00 0.000000e+00 0.000000e+00 0.000000e+00 0.000000e+00 0.000000e+00 0.000000e+00 0.000000e+00 0.000000e+00 0.000000e+00 
     2.5                8.998002e-05 9.003167e-05 3.218573e-05 1.195915e-04 1.511245e-04 5.648733e-08 8.950390e-05 8.330025e-05 8.340530e-05 2.378806e-04 2.588905e-04 2.610333e-04 
     3.5                4.468900e-04 4.469176e-04 3.680312e-04 4.715187e-04 7.424922e-04 4.275338e-07 4.446192e-04 4.363145e-04 4.362817e-04 1.239457e-03 1.277541e-03 1.360843e-03 
     4.5                9.281265e-04 9.278260e-04 9.739005e-04 8.478351e-04 1.643893e-03 1.096172e-06 9.229620e-04 9.774389e-04 9.774276e-04 2.718241e-03 2.738997e-03 2.888443e-03 
     5.5                1.447850e-03 1.447030e-03 1.636749e-03 1.278919e-03 2.774989e-03 1.703062e-06 1.438926e-03 1.622854e-03 1.622970e-03 4.462219e-03 4.439462e-03 4.563301e-03 
     6.5                1.951212e-03 1.950261e-03 2.262076e-03 1.674220e-03 4.176066e-03 2.112720e-06 1.938512e-03 2.261934e-03 2.262214e-03 6.365438e-03 6.335791e-03 6.155236e-03 
     7.5                2.398825e-03 2.398289e-03 2.769707e-03 2.078055e-03 5.676737e-03 2.360985e-06 2.382266e-03 2.842719e-03 2.842770e-03 8.264896e-03 8.219909e-03 7.575122e-03 
     8.5                2.804395e-03 2.803390e-03 3.224400e-03 2.454711e-03 7.153963e-03 2.738269e-06 2.784424e-03 3.380270e-03 3.380750e-03 1.009483e-02 1.003958e-02 8.865096e-03 
     9.5                3.158618e-03 3.157412e-03 3.599346e-03 2.768067e-03 8.585413e-03 2.823109e-06 3.135131e-03 3.863822e-03 3.864092e-03 1.178417e-02 1.174008e-02 9.961999e-03 
    10.5                3.442515e-03 3.441082e-03 3.847183e-03 3.118668e-03 9.993496e-03 2.828427e-06 3.415877e-03 4.297341e-03 4.297929e-03 1.337868e-02 1.330960e-02 1.087670e-02 
    11.5                3.749475e-03 3.748383e-03 4.132279e-03 3.407684e-03 1.165621e-02 2.987721e-06 3.719721e-03 4.757617e-03 4.757796e-03 1.518740e-02 1.515936e-02 1.181097e-02 
    12.5                3.973120e-03 3.971370e-03 4.351629e-03 3.635397e-03 1.292342e-02 2.940632e-06 3.940489e-03 5.088929e-03 5.089464e-03 1.656405e-02 1.652385e-02 1.251347e-02 
    13.5                4.053229e-03 4.052101e-03 4.448507e-03 3.714635e-03 1.403467e-02 2.819787e-06 4.020688e-03 5.222376e-03 5.222971e-03 1.766450e-02 1.761995e-02 1.277685e-02 
    14.5                4.076323e-03 4.075497e-03 4.338151e-03 3.887970e-03 1.463398e-02 2.747653e-06 4.043374e-03 5.271412e-03 5.271744e-03 1.821897e-02 1.816752e-02 1.286184e-02 
    15.5                4.189455e-03 4.187519e-03 4.416607e-03 3.994998e-03 1.581996e-02 2.665884e-06 4.155235e-03 5.380848e-03 5.381530e-03 1.936571e-02 1.933081e-02 1.318518e-02 
    16.5                4.179587e-03 4.177958e-03 4.350883e-03 4.062780e-03 1.612523e-02 2.544316e-06 4.145444e-03 5.391332e-03 5.391954e-03 1.961276e-02 1.957373e-02 1.317258e-02 
    17.5                4.200800e-03 4.198788e-03 4.325337e-03 4.104108e-03 1.659633e-02 2.360317e-06 4.166418e-03 5.352730e-03 5.353335e-03 2.001494e-02 1.999224e-02 1.321727e-02 
    18.5                4.218863e-03 4.217745e-03 4.277541e-03 4.202054e-03 1.709006e-02 2.255529e-06 4.184659e-03 5.313994e-03 5.314340e-03 2.045863e-02 2.042370e-02 1.328556e-02 
    19.5                4.218727e-03 4.216449e-03 4.220433e-03 4.198918e-03 1.721647e-02 2.162578e-06 4.184128e-03 5.202904e-03 5.203780e-03 2.048668e-02 2.048956e-02 1.323821e-02 
    20.5                4.118235e-03 4.115941e-03 4.149273e-03 4.153064e-03 1.702787e-02 1.929834e-06 4.084267e-03 5.019919e-03 5.020286e-03 2.021006e-02 2.015404e-02 1.298580e-02 
    21.5                4.082226e-03 4.081208e-03 3.979350e-03 4.219848e-03 1.714030e-02 1.706738e-06 4.049777e-03 4.866803e-03 4.867245e-03 2.020934e-02 2.018052e-02 1.285185e-02 
    22.5                4.095288e-03 4.092896e-03 4.003656e-03 4.158290e-03 1.743462e-02 1.580216e-06 4.063106e-03 4.735705e-03 4.736295e-03 2.040722e-02 2.040857e-02 1.284227e-02 
    23.5                3.874413e-03 3.872073e-03 3.814695e-03 3.983006e-03 1.651127e-02 1.427677e-06 3.844016e-03 4.436958e-03 4.437650e-03 1.933785e-02 1.930203e-02 1.220927e-02 
    24.5                3.729216e-03 3.727887e-03 3.591447e-03 3.890725e-03 1.582034e-02 1.289961e-06 3.700288e-03 4.171317e-03 4.171600e-03 1.849738e-02 1.847450e-02 1.173181e-02 
    25.5                3.628151e-03 3.625900e-03 3.499382e-03 3.787711e-03 1.546694e-02 1.224742e-06 3.599466e-03 3.941115e-03 3.941562e-03 1.803804e-02 1.801195e-02 1.141983e-02 
    26.5                3.549167e-03 3.547537e-03 3.353278e-03 3.755387e-03 1.488908e-02 1.093799e-06 3.521749e-03 3.735661e-03 3.736237e-03 1.738341e-02 1.736697e-02 1.115745e-02 
    27.5                3.451659e-03 3.450387e-03 3.298185e-03 3.606116e-03 1.431538e-02 8.879511e-07 3.425025e-03 3.529911e-03 3.530045e-03 1.670926e-02 1.669151e-02 1.084362e-02 
    28.5                3.314038e-03 3.311561e-03 3.130925e-03 3.521263e-03 1.369136e-02 7.256152e-07 3.289282e-03 3.257276e-03 3.257766e-03 1.596470e-02 1.593529e-02 1.042852e-02 
    29.5                3.144077e-03 3.143090e-03 3.008499e-03 3.272733e-03 1.297261e-02 6.542649e-07 3.121235e-03 2.952017e-03 2.952488e-03 1.508611e-02 1.507822e-02 9.869784e-03 
    30.5                2.965817e-03 2.964343e-03 2.777207e-03 3.192312e-03 1.235696e-02 5.309676e-07 2.944801e-03 2.735177e-03 2.735266e-03 1.434138e-02 1.431193e-02 9.345620e-03 
    31.5                2.923279e-03 2.922116e-03 2.676672e-03 3.170550e-03 1.197311e-02 4.128620e-07 2.903158e-03 2.566873e-03 2.567264e-03 1.389761e-02 1.387533e-02 9.182860e-03 
    32.5                2.813770e-03 2.811596e-03 2.609298e-03 3.027376e-03 1.124968e-02 3.601270e-07 2.795054e-03 2.354121e-03 2.354472e-03 1.310819e-02 1.309254e-02 8.845565e-03 
    33.5                2.801461e-03 2.799591e-03 2.545188e-03 3.087204e-03 1.085861e-02 3.415625e-07 2.784218e-03 2.175444e-03 2.175640e-03 1.273107e-02 1.270396e-02 8.820998e-03 
    34.5                2.842115e-03 2.841580e-03 2.585687e-03 3.087782e-03 1.094110e-02 2.809603e-07 2.825188e-03 2.088898e-03 2.089155e-03 1.281097e-02 1.279201e-02 8.917276e-03 
    35.5                2.726919e-03 2.724016e-03 2.497945e-03 2.956146e-03 1.007737e-02 1.773263e-07 2.710999e-03 1.950109e-03 1.950403e-03 1.190540e-02 1.188784e-02 8.564130e-03 
    36.5                2.723349e-03 2.721621e-03 2.423581e-03 3.013935e-03 9.816735e-03 1.320946e-07 2.709024e-03 1.819472e-03 1.819719e-03 1.164809e-02 1.164033e-02 8.548204e-03 
    37.5                2.789913e-03 2.788267e-03 2.524783e-03 3.086340e-03 9.923914e-03 8.502822e-08 2.775424e-03 1.760840e-03 1.761011e-03 1.184594e-02 1.180135e-02 8.790980e-03 
    38.5                2.862436e-03 2.860653e-03 2.459398e-03 3.285063e-03 9.670705e-03 6.041315e-08 2.849659e-03 1.689237e-03 1.689555e-03 1.169593e-02 1.166637e-02 9.003456e-03 
    39.5                2.952329e-03 2.948723e-03 2.675682e-03 3.164026e-03 9.621570e-03 6.058650e-08 2.940187e-03 1.639153e-03 1.639370e-03 1.169763e-02 1.171926e-02 9.218520e-03 
    40.5                2.924804e-03 2.924165e-03 2.635395e-03 3.246428e-03 9.422275e-03 5.268426e-08 2.912761e-03 1.571174e-03 1.571577e-03 1.155557e-02 1.150740e-02 9.216911e-03 
    41.5                3.106955e-03 3.104664e-03 2.671302e-03 3.548126e-03 9.433814e-03 3.849153e-08 3.095750e-03 1.552184e-03 1.552347e-03 1.178210e-02 1.175074e-02 9.760745e-03 
    42.5                3.225187e-03 3.224397e-03 2.941834e-03 3.429314e-03 9.215306e-03 5.720262e-08 3.214217e-03 1.544789e-03 1.544962e-03 1.169723e-02 1.172559e-02 1.007168e-02 
    43.5                3.192216e-03 3.190098e-03 2.876705e-03 3.598389e-03 8.757080e-03 5.071323e-08 3.182445e-03 1.497492e-03 1.497472e-03 1.139675e-02 1.131684e-02 1.009689e-02 
    44.5                3.497388e-03 3.495697e-03 3.026316e-03 3.947729e-03 9.108502e-03 4.755071e-08 3.487533e-03 1.544401e-03 1.544652e-03 1.200357e-02 1.199465e-02 1.097152e-02 
    45.5                3.618759e-03 3.617200e-03 3.354261e-03 3.909768e-03 9.174230e-03 5.389019e-08 3.609186e-03 1.547121e-03 1.547311e-03 1.225010e-02 1.220138e-02 1.138703e-02 
    46.5                3.649453e-03 3.651257e-03 3.292609e-03 3.983810e-03 8.912102e-03 8.599460e-08 3.641147e-03 1.511045e-03 1.511286e-03 1.206441e-02 1.205061e-02 1.144884e-02 
    47.5                3.815931e-03 3.811547e-03 3.435596e-03 4.221529e-03 8.831633e-03 1.689585e-07 3.807484e-03 1.533263e-03 1.533547e-03 1.230497e-02 1.224897e-02 1.200684e-02 
    48.5                4.091154e-03 4.090965e-03 3.554581e-03 4.603396e-03 8.766574e-03 1.724078e-07 4.083455e-03 1.582610e-03 1.582578e-03 1.262771e-02 1.262594e-02 1.283316e-02 
    49.5                4.442642e-03 4.443554e-03 3.963118e-03 5.036167e-03 9.053474e-03 1.817502e-07 4.436699e-03 1.642735e-03 1.642846e-03 1.347973e-02 1.335469e-02 1.404409e-02 
    50.5                4.952742e-03 4.948372e-03 4.224507e-03 5.729576e-03 9.350373e-03 1.445992e-07 4.946884e-03 1.724264e-03 1.724472e-03 1.445237e-02 1.434875e-02 1.559205e-02 
    51.5                5.634789e-03 5.631042e-03 4.861849e-03 6.275791e-03 9.659233e-03 3.994922e-07 5.629460e-03 1.808578e-03 1.808839e-03 1.561372e-02 1.566769e-02 1.759912e-02 
    52.5                5.948626e-03 5.950943e-03 5.525673e-03 6.250849e-03 9.516821e-03 3.029472e-07 5.945859e-03 1.856278e-03 1.856324e-03 1.603256e-02 1.610177e-02 1.859450e-02 
    53.5                6.038284e-03 6.036344e-03 5.688383e-03 6.318056e-03 9.084024e-03 5.542842e-07 6.037453e-03 1.874193e-03 1.874372e-03 1.594045e-02 1.597123e-02 1.891090e-02 
    54.5                5.966135e-03 5.961164e-03 5.804407e-03 5.946334e-03 8.631465e-03 4.273538e-07 5.965607e-03 1.855881e-03 1.856367e-03 1.541231e-02 1.554156e-02 1.860529e-02 
    55.5                5.829423e-03 5.825474e-03 5.757568e-03 5.982797e-03 8.222763e-03 4.575714e-07 5.829347e-03 1.828504e-03 1.828662e-03 1.512419e-02 1.505033e-02 1.836779e-02 
    56.5                5.720960e-03 5.718407e-03 5.629497e-03 5.701168e-03 7.823614e-03 3.007043e-07 5.721038e-03 1.785707e-03 1.785869e-03 1.452486e-02 1.459653e-02 1.788002e-02 
    57.5                5.335306e-03 5.330118e-03 5.427594e-03 5.192153e-03 7.122707e-03 3.072887e-07 5.336179e-03 1.696570e-03 1.696681e-03 1.347619e-02 1.350629e-02 1.672614e-02 
    58.5                5.002656e-03 5.000595e-03 5.013622e-03 4.969238e-03 6.419938e-03 4.089323e-07 5.004724e-03 1.570617e-03 1.570706e-03 1.248136e-02 1.249738e-02 1.569548e-02 
    59.5                4.772174e-03 4.770502e-03 4.749999e-03 4.729916e-03 5.912292e-03 4.125605e-07 4.773856e-03 1.442363e-03 1.442634e-03 1.173792e-02 1.177530e-02 1.493545e-02 
    60.5                4.466032e-03 4.458374e-03 4.595180e-03 4.288457e-03 5.370341e-03 3.868056e-07 4.468463e-03 1.288865e-03 1.289183e-03 1.088715e-02 1.092265e-02 1.398648e-02 
    61.5                4.038514e-03 4.037289e-03 4.162245e-03 3.734670e-03 4.607735e-03 2.396175e-07 4.040852e-03 1.129039e-03 1.129106e-03 9.582103e-03 9.735351e-03 1.255127e-02 
    62.5                3.454591e-03 3.452959e-03 3.862410e-03 3.051770e-03 3.852797e-03 2.615747e-07 3.457727e-03 9.641907e-04 9.642965e-04 8.260457e-03 8.282236e-03 1.085259e-02 
    63.5                2.829428e-03 2.825655e-03 3.163440e-03 2.485986e-03 3.041662e-03 2.591323e-07 2.832256e-03 7.935082e-04 7.935874e-04 6.694676e-03 6.708893e-03 8.877506e-03 
    64.5                2.293672e-03 2.291224e-03 2.606197e-03 1.986262e-03 2.412717e-03 2.161806e-07 2.296283e-03 6.285228e-04 6.286163e-04 5.401882e-03 5.409954e-03 7.209147e-03 
    65.5                1.810202e-03 1.810145e-03 2.074671e-03 1.513267e-03 1.825351e-03 2.292229e-07 1.812594e-03 4.747488e-04 4.748005e-04 4.187223e-03 4.229232e-03 5.662433e-03 
    66.5                1.377174e-03 1.375612e-03 1.674665e-03 1.073643e-03 1.341367e-03 2.308151e-07 1.379323e-03 3.409649e-04 3.409930e-04 3.173050e-03 3.192701e-03 4.319818e-03 
    67.5                9.547537e-04 9.528873e-04 1.239369e-03 6.864996e-04 8.934067e-04 2.357939e-07 9.566038e-04 2.225704e-04 2.226309e-04 2.198376e-03 2.195804e-03 3.011362e-03 
    68.5                6.026111e-04 6.016251e-04 8.345715e-04 3.845825e-04 5.354753e-04 1.616530e-07 6.039347e-04 1.284053e-04 1.284102e-04 1.374066e-03 1.373588e-03 1.903985e-03 
    69.5                3.294263e-04 3.291760e-04 5.132656e-04 1.681003e-04 2.792576e-04 1.559418e-07 3.304702e-04 6.275424e-05 6.276669e-05 7.562509e-04 7.465315e-04 1.051775e-03 
    70.5                1.405954e-04 1.404160e-04 2.637850e-04 4.181369e-05 1.134999e-04 1.361105e-07 1.411313e-04 2.435882e-05 2.436042e-05 3.329725e-04 3.172123e-04 4.609054e-04 
    71.5                3.974474e-05 3.985145e-05 1.021661e-04 4.764628e-06 3.137613e-05 1.000767e-07 4.000577e-05 6.566150e-06 6.566095e-06 1.129409e-04 9.021747e-05 1.464984e-04 
    72.5                6.485592e-06 6.464391e-06 2.088838e-05 1.180808e-07 4.178839e-06 3.245469e-08 6.561608e-06 1.108116e-06 1.109147e-06 2.158101e-05 1.438219e-05 2.680488e-05 
    73.5                4.516655e-07 4.538885e-07 2.263793e-06 0.000000e+00 2.305230e-07 3.222186e-09 4.620764e-07 6.255489e-08 6.257377e-08 2.281357e-06 9.755051e-07 2.528959e-06 
    74.5                0.000000e+00 0.000000e+00 0.000000e+00 0.000000e+00 0.000000e+00 0.000000e+00 0.000000e+00 0.000000e+00 0.000000e+00 0.000000e+00 0.000000e+00 0.000000e+00 
    75.5                0.000000e+00 0.000000e+00 0.000000e+00 0.000000e+00 0.000000e+00 0.000000e+00 0.000000e+00 0.000000e+00 0.000000e+00 0.000000e+00 0.000000e+00 0.000000e+00 
    76.5                0.000000e+00 0.000000e+00 0.000000e+00 0.000000e+00 0.000000e+00 0.000000e+00 0.000000e+00 0.000000e+00 0.000000e+00 0.000000e+00 0.000000e+00 0.000000e+00 
    77.5                0.000000e+00 0.000000e+00 0.000000e+00 0.000000e+00 0.000000e+00 0.000000e+00 0.000000e+00 0.000000e+00 0.000000e+00 0.000000e+00 0.000000e+00 0.000000e+00 
    78.5                0.000000e+00 0.000000e+00 0.000000e+00 0.000000e+00 0.000000e+00 0.000000e+00 0.000000e+00 0.000000e+00 0.000000e+00 0.000000e+00 0.000000e+00 0.000000e+00 
    79.5                0.000000e+00 0.000000e+00 0.000000e+00 0.000000e+00 0.000000e+00 0.000000e+00 0.000000e+00 0.000000e+00 0.000000e+00 0.000000e+00 0.000000e+00 0.000000e+00 


