# 80 rows of flux data
# 12 columns of flux data
# 
# total cross-sectional flux  1.025005e+00 /m^2/yr
#
#                             +x ram      -x wake      +y port -y starboard    +z zenith     -z nadir        Earth          Sun     anti-Sun      rot (x)      rot (y)      rot (z) 
# average speed (km/s)         37.42        37.40        38.05        36.81        31.65        17.13        37.47        27.82        27.82        33.73        33.74        37.39 
# total flux (#/m2/yr)  2.312442e-01 2.318691e-01 2.129952e-01 2.516810e-01 6.341937e-01 5.594982e-05 2.308596e-01 1.664518e-01 1.664686e-01 8.507491e-01 8.496322e-01 7.286836e-01 
# velocity (km/s)
     0.5                0.000000e+00 0.000000e+00 0.000000e+00 0.000000e+00 0.000000e+00 0.000000e+00 0.000000e+00 0.000000e+00 0.000000e+00 0.000000e+00 0.000000e+00 0.000000e+00 
     1.5                0.000000e+00 0.000000e+00 0.000000e+00 0.000000e+00 0.000000e+00 0.000000e+00 0.000000e+00 0.000000e+00 0.000000e+00 0.000000e+00 0.000000e+00 0.000000e+00 
     2.5                8.973513e-05 8.840618e-05 1.187638e-04 3.448486e-05 1.552977e-04 5.336850e-08 8.936489e-05 8.405734e-05 8.419380e-05 2.423799e-04 2.605957e-04 2.605052e-04 
     3.5                4.477079e-04 4.459511e-04 4.720124e-04 3.705346e-04 7.494837e-04 4.161656e-07 4.464502e-04 4.410837e-04 4.409278e-04 1.250967e-03 1.284510e-03 1.363212e-03 
     4.5                9.222708e-04 9.237904e-04 8.472397e-04 9.572686e-04 1.635271e-03 1.102120e-06 9.199741e-04 9.747245e-04 9.747356e-04 2.704477e-03 2.726553e-03 2.867090e-03 
     5.5                1.433718e-03 1.439112e-03 1.263125e-03 1.608728e-03 2.748069e-03 1.760362e-06 1.428811e-03 1.606847e-03 1.606906e-03 4.413823e-03 4.402698e-03 4.511625e-03 
     6.5                1.931497e-03 1.941306e-03 1.628977e-03 2.264180e-03 4.127757e-03 2.101765e-06 1.925188e-03 2.237463e-03 2.237741e-03 6.300905e-03 6.277545e-03 6.099088e-03 
     7.5                2.376656e-03 2.390587e-03 1.988813e-03 2.817799e-03 5.615482e-03 2.407876e-06 2.368001e-03 2.813398e-03 2.813471e-03 8.194658e-03 8.151223e-03 7.519209e-03 
     8.5                2.782220e-03 2.798121e-03 2.335133e-03 3.318748e-03 7.082129e-03 2.771579e-06 2.770971e-03 3.352019e-03 3.352358e-03 1.002130e-02 9.962046e-03 8.823456e-03 
     9.5                3.125906e-03 3.144475e-03 2.582856e-03 3.735049e-03 8.504665e-03 2.874599e-06 3.113687e-03 3.823753e-03 3.823972e-03 1.168129e-02 1.164001e-02 9.886987e-03 
    10.5                3.416844e-03 3.435530e-03 2.884325e-03 4.053862e-03 9.915387e-03 2.843268e-06 3.400846e-03 4.264598e-03 4.265101e-03 1.329589e-02 1.322285e-02 1.083075e-02 
    11.5                3.721251e-03 3.742400e-03 3.118648e-03 4.410083e-03 1.157248e-02 2.904384e-06 3.704501e-03 4.722328e-03 4.722594e-03 1.510885e-02 1.506446e-02 1.177482e-02 
    12.5                3.944913e-03 3.967330e-03 3.295572e-03 4.684942e-03 1.283490e-02 3.006155e-06 3.926685e-03 5.049042e-03 5.049313e-03 1.648400e-02 1.642674e-02 1.248269e-02 
    13.5                4.022290e-03 4.047589e-03 3.326252e-03 4.847950e-03 1.394047e-02 2.906957e-06 4.005007e-03 5.179654e-03 5.180133e-03 1.757875e-02 1.751220e-02 1.275788e-02 
    14.5                4.046996e-03 4.069029e-03 3.447848e-03 4.751331e-03 1.456191e-02 2.753333e-06 4.027882e-03 5.230494e-03 5.230933e-03 1.813559e-02 1.807919e-02 1.281354e-02 
    15.5                4.159157e-03 4.181192e-03 3.512096e-03 4.899525e-03 1.574365e-02 2.537248e-06 4.140792e-03 5.341145e-03 5.341818e-03 1.928521e-02 1.923652e-02 1.315676e-02 
    16.5                4.155529e-03 4.177165e-03 3.564258e-03 4.856218e-03 1.605990e-02 2.429531e-06 4.135784e-03 5.358580e-03 5.358920e-03 1.955024e-02 1.949890e-02 1.315813e-02 
    17.5                4.180777e-03 4.201213e-03 3.577632e-03 4.873943e-03 1.653144e-02 2.370161e-06 4.161992e-03 5.327383e-03 5.327939e-03 1.996638e-02 1.992508e-02 1.322069e-02 
    18.5                4.197180e-03 4.217539e-03 3.636207e-03 4.846580e-03 1.703476e-02 2.275957e-06 4.177452e-03 5.289178e-03 5.289629e-03 2.040748e-02 2.036075e-02 1.327099e-02 
    19.5                4.195547e-03 4.214954e-03 3.621437e-03 4.804340e-03 1.716874e-02 2.134064e-06 4.177621e-03 5.175863e-03 5.176340e-03 2.043840e-02 2.043058e-02 1.322378e-02 
    20.5                4.094176e-03 4.112987e-03 3.560139e-03 4.728511e-03 1.697890e-02 1.936119e-06 4.074867e-03 4.987627e-03 4.988354e-03 2.014740e-02 2.009145e-02 1.295500e-02 
    21.5                4.062810e-03 4.079161e-03 3.604906e-03 4.580087e-03 1.711058e-02 1.667712e-06 4.043640e-03 4.841680e-03 4.842138e-03 2.016286e-02 2.013776e-02 1.282399e-02 
    22.5                4.076603e-03 4.094063e-03 3.537089e-03 4.636981e-03 1.739347e-02 1.508809e-06 4.060862e-03 4.717368e-03 4.717666e-03 2.037278e-02 2.036155e-02 1.283726e-02 
    23.5                3.858872e-03 3.875845e-03 3.390431e-03 4.420945e-03 1.647442e-02 1.397856e-06 3.841550e-03 4.418361e-03 4.419200e-03 1.930282e-02 1.925979e-02 1.221061e-02 
    24.5                3.714308e-03 3.728892e-03 3.307028e-03 4.171277e-03 1.579864e-02 1.276234e-06 3.697505e-03 4.154121e-03 4.154451e-03 1.846891e-02 1.844577e-02 1.171878e-02 
    25.5                3.615244e-03 3.628654e-03 3.221246e-03 4.075306e-03 1.544090e-02 1.162683e-06 3.598567e-03 3.927018e-03 3.927571e-03 1.800935e-02 1.798094e-02 1.141928e-02 
    26.5                3.535020e-03 3.547010e-03 3.191373e-03 3.906196e-03 1.487812e-02 1.045581e-06 3.518962e-03 3.718959e-03 3.719202e-03 1.735429e-02 1.734618e-02 1.113680e-02 
    27.5                3.434805e-03 3.447864e-03 3.061482e-03 3.840021e-03 1.429499e-02 8.543893e-07 3.420393e-03 3.509432e-03 3.509716e-03 1.667170e-02 1.665779e-02 1.082679e-02 
    28.5                3.303054e-03 3.313631e-03 2.991973e-03 3.660629e-03 1.367994e-02 6.748233e-07 3.288925e-03 3.245529e-03 3.246233e-03 1.594286e-02 1.591840e-02 1.042193e-02 
    29.5                3.132748e-03 3.144932e-03 2.778163e-03 3.520113e-03 1.295315e-02 5.879670e-07 3.121343e-03 2.941884e-03 2.942195e-03 1.506785e-02 1.505357e-02 9.875931e-03 
    30.5                2.956373e-03 2.966446e-03 2.703206e-03 3.262070e-03 1.235174e-02 5.095540e-07 2.944060e-03 2.724912e-03 2.725128e-03 1.432241e-02 1.430049e-02 9.337184e-03 
    31.5                2.915728e-03 2.922822e-03 2.692777e-03 3.155631e-03 1.197490e-02 4.195899e-07 2.903617e-03 2.559940e-03 2.560369e-03 1.388507e-02 1.387157e-02 9.179377e-03 
    32.5                2.808373e-03 2.814217e-03 2.586187e-03 3.068060e-03 1.124700e-02 3.547461e-07 2.797094e-03 2.349323e-03 2.349467e-03 1.309945e-02 1.308569e-02 8.857006e-03 
    33.5                2.796448e-03 2.801362e-03 2.641434e-03 2.980051e-03 1.086852e-02 3.004711e-07 2.785802e-03 2.170670e-03 2.171151e-03 1.272063e-02 1.270927e-02 8.810954e-03 
    34.5                2.834666e-03 2.842671e-03 2.644173e-03 3.033490e-03 1.094609e-02 2.313919e-07 2.826313e-03 2.084048e-03 2.084234e-03 1.279898e-02 1.279124e-02 8.916606e-03 
    35.5                2.721432e-03 2.725847e-03 2.548963e-03 2.919533e-03 1.008006e-02 1.749147e-07 2.712386e-03 1.945998e-03 1.946149e-03 1.189565e-02 1.188452e-02 8.573060e-03 
    36.5                2.718736e-03 2.722752e-03 2.601760e-03 2.828262e-03 9.832973e-03 1.251359e-07 2.711003e-03 1.816846e-03 1.817184e-03 1.164368e-02 1.165086e-02 8.539496e-03 
    37.5                2.788267e-03 2.791619e-03 2.676769e-03 2.946634e-03 9.936373e-03 8.517676e-08 2.779742e-03 1.759343e-03 1.759542e-03 1.184098e-02 1.180989e-02 8.800867e-03 
    38.5                2.859968e-03 2.861034e-03 2.868671e-03 2.866158e-03 9.708013e-03 5.407499e-08 2.851623e-03 1.687924e-03 1.688317e-03 1.169463e-02 1.169270e-02 8.995252e-03 
    39.5                2.945647e-03 2.947996e-03 2.768424e-03 3.088552e-03 9.628263e-03 3.489364e-08 2.941656e-03 1.637282e-03 1.637375e-03 1.169507e-02 1.171814e-02 9.226371e-03 
    40.5                2.925159e-03 2.927331e-03 2.849929e-03 3.035155e-03 9.443552e-03 2.164278e-08 2.916305e-03 1.569531e-03 1.569737e-03 1.155297e-02 1.152381e-02 9.220984e-03 
    41.5                3.104690e-03 3.103626e-03 3.142336e-03 3.073158e-03 9.472716e-03 1.147116e-08 3.096714e-03 1.550619e-03 1.550999e-03 1.177698e-02 1.177332e-02 9.756876e-03 
    42.5                3.218694e-03 3.225032e-03 3.057449e-03 3.343601e-03 9.225118e-03 2.994237e-09 3.215976e-03 1.543237e-03 1.543390e-03 1.169509e-02 1.172330e-02 1.008894e-02 
    43.5                3.193715e-03 3.192415e-03 3.224697e-03 3.249361e-03 8.788245e-03 1.368931e-10 3.184113e-03 1.495990e-03 1.496047e-03 1.138970e-02 1.133636e-02 1.010010e-02 
    44.5                3.495489e-03 3.493092e-03 3.549553e-03 3.410313e-03 9.153550e-03 5.890310e-11 3.488415e-03 1.543258e-03 1.543418e-03 1.199864e-02 1.202346e-02 1.095645e-02 
    45.5                3.617958e-03 3.618229e-03 3.531461e-03 3.752520e-03 9.190345e-03 7.063818e-11 3.613429e-03 1.546180e-03 1.546541e-03 1.224500e-02 1.220704e-02 1.140272e-02 
    46.5                3.650848e-03 3.654496e-03 3.625778e-03 3.678873e-03 8.939073e-03 6.718323e-08 3.646661e-03 1.511663e-03 1.511724e-03 1.207398e-02 1.206583e-02 1.147536e-02 
    47.5                3.819458e-03 3.814887e-03 3.865776e-03 3.821963e-03 8.866703e-03 1.465307e-07 3.813259e-03 1.533794e-03 1.533770e-03 1.231117e-02 1.227101e-02 1.203369e-02 
    48.5                4.093305e-03 4.091517e-03 4.236890e-03 3.926423e-03 8.826021e-03 2.050822e-07 4.087440e-03 1.581790e-03 1.582116e-03 1.263192e-02 1.265989e-02 1.284142e-02 
    49.5                4.445220e-03 4.439816e-03 4.641914e-03 4.343022e-03 9.114875e-03 1.039984e-07 4.437577e-03 1.640553e-03 1.640544e-03 1.346223e-02 1.338741e-02 1.403236e-02 
    50.5                4.956675e-03 4.943826e-03 5.318217e-03 4.627517e-03 9.444721e-03 3.262671e-08 4.946862e-03 1.723406e-03 1.723525e-03 1.444121e-02 1.439519e-02 1.558594e-02 
    51.5                5.634376e-03 5.623121e-03 5.868277e-03 5.289434e-03 9.745708e-03 4.085968e-08 5.631523e-03 1.807652e-03 1.808027e-03 1.561305e-02 1.569258e-02 1.760673e-02 
    52.5                5.942030e-03 5.946096e-03 5.878043e-03 5.949331e-03 9.544856e-03 8.024072e-08 5.948029e-03 1.855360e-03 1.855304e-03 1.602773e-02 1.608061e-02 1.862496e-02 
    53.5                6.024132e-03 6.028150e-03 5.959655e-03 6.062105e-03 9.109753e-03 8.684846e-08 6.030255e-03 1.871713e-03 1.872141e-03 1.590708e-02 1.593445e-02 1.890711e-02 
    54.5                5.948841e-03 5.954806e-03 5.623506e-03 6.169723e-03 8.616759e-03 5.259227e-08 5.960548e-03 1.852783e-03 1.852886e-03 1.538862e-02 1.548194e-02 1.861746e-02 
    55.5                5.821580e-03 5.827145e-03 5.665539e-03 6.092167e-03 8.217108e-03 6.132324e-08 5.827133e-03 1.825646e-03 1.825717e-03 1.509023e-02 1.500957e-02 1.837949e-02 
    56.5                5.709272e-03 5.718351e-03 5.407643e-03 5.968500e-03 7.805271e-03 5.483329e-08 5.721567e-03 1.783360e-03 1.783570e-03 1.451298e-02 1.454846e-02 1.790759e-02 
    57.5                5.322586e-03 5.334372e-03 4.938546e-03 5.737022e-03 7.078181e-03 2.154260e-08 5.333593e-03 1.693119e-03 1.693277e-03 1.345623e-02 1.343965e-02 1.675913e-02 
    58.5                4.990546e-03 5.002339e-03 4.735329e-03 5.279385e-03 6.396682e-03 3.019038e-08 5.000791e-03 1.566886e-03 1.566978e-03 1.245875e-02 1.244507e-02 1.571333e-02 
    59.5                4.762455e-03 4.771421e-03 4.518047e-03 4.994319e-03 5.893737e-03 7.421930e-08 4.773398e-03 1.439342e-03 1.439517e-03 1.172005e-02 1.172947e-02 1.495645e-02 
    60.5                4.456726e-03 4.463291e-03 4.111754e-03 4.820027e-03 5.328230e-03 1.255811e-07 4.468781e-03 1.286737e-03 1.286901e-03 1.087226e-02 1.086443e-02 1.402061e-02 
    61.5                4.024903e-03 4.038440e-03 3.591299e-03 4.369852e-03 4.557182e-03 1.105531e-07 4.040946e-03 1.126830e-03 1.126978e-03 9.580568e-03 9.664000e-03 1.258865e-02 
    62.5                3.439926e-03 3.462071e-03 2.940748e-03 4.018833e-03 3.772830e-03 1.019709e-07 3.454767e-03 9.616546e-04 9.615589e-04 8.242343e-03 8.203870e-03 1.088563e-02 
    63.5                2.817758e-03 2.830141e-03 2.399945e-03 3.282768e-03 2.976092e-03 8.044783e-08 2.830093e-03 7.908806e-04 7.911130e-04 6.676373e-03 6.642643e-03 8.898622e-03 
    64.5                2.285326e-03 2.298503e-03 1.921197e-03 2.704104e-03 2.353467e-03 6.974352e-08 2.295130e-03 6.269639e-04 6.269940e-04 5.390254e-03 5.356546e-03 7.233748e-03 
    65.5                1.801038e-03 1.813906e-03 1.469319e-03 2.148690e-03 1.772616e-03 5.959540e-08 1.811195e-03 4.732694e-04 4.733247e-04 4.179349e-03 4.177832e-03 5.681351e-03 
    66.5                1.367734e-03 1.378794e-03 1.047666e-03 1.719119e-03 1.287509e-03 4.719947e-08 1.376239e-03 3.392597e-04 3.392888e-04 3.158824e-03 3.143299e-03 4.329747e-03 
    67.5                9.461828e-04 9.546678e-04 6.732916e-04 1.259619e-03 8.453902e-04 4.438375e-08 9.528150e-04 2.208482e-04 2.209035e-04 2.178968e-03 2.152395e-03 3.011444e-03 
    68.5                5.970433e-04 6.045159e-04 3.805624e-04 8.460676e-04 4.967217e-04 3.278999e-08 6.020773e-04 1.271165e-04 1.271253e-04 1.362765e-03 1.342481e-03 1.907311e-03 
    69.5                3.254690e-04 3.317747e-04 1.704760e-04 5.151313e-04 2.499883e-04 3.103063e-08 3.292359e-04 6.192856e-05 6.193995e-05 7.484340e-04 7.251954e-04 1.054356e-03 
    70.5                1.377720e-04 1.414711e-04 4.585578e-05 2.573647e-04 9.525388e-05 3.844414e-08 1.395106e-04 2.357046e-05 2.356870e-05 3.244258e-04 3.041535e-04 4.575347e-04 
    71.5                3.787506e-05 3.965767e-05 6.872044e-06 9.299159e-05 2.377126e-05 3.898419e-08 3.825308e-05 6.049182e-06 6.048504e-06 1.039292e-04 8.385588e-05 1.393106e-04 
    72.5                5.644815e-06 5.973660e-06 2.585228e-07 1.692659e-05 2.704643e-06 1.956133e-08 5.669662e-06 8.895460e-07 8.908622e-07 1.749909e-05 1.232280e-05 2.269992e-05 
    73.5                3.355062e-07 3.747705e-07 8.780537e-12 1.515021e-06 8.951569e-08 4.070195e-09 3.315033e-07 4.339182e-08 4.338910e-08 1.519816e-06 7.293435e-07 1.760239e-06 
    74.5                0.000000e+00 0.000000e+00 0.000000e+00 0.000000e+00 0.000000e+00 0.000000e+00 0.000000e+00 0.000000e+00 0.000000e+00 0.000000e+00 0.000000e+00 0.000000e+00 
    75.5                0.000000e+00 0.000000e+00 0.000000e+00 0.000000e+00 0.000000e+00 0.000000e+00 0.000000e+00 0.000000e+00 0.000000e+00 0.000000e+00 0.000000e+00 0.000000e+00 
    76.5                0.000000e+00 0.000000e+00 0.000000e+00 0.000000e+00 0.000000e+00 0.000000e+00 0.000000e+00 0.000000e+00 0.000000e+00 0.000000e+00 0.000000e+00 0.000000e+00 
    77.5                0.000000e+00 0.000000e+00 0.000000e+00 0.000000e+00 0.000000e+00 0.000000e+00 0.000000e+00 0.000000e+00 0.000000e+00 0.000000e+00 0.000000e+00 0.000000e+00 
    78.5                0.000000e+00 0.000000e+00 0.000000e+00 0.000000e+00 0.000000e+00 0.000000e+00 0.000000e+00 0.000000e+00 0.000000e+00 0.000000e+00 0.000000e+00 0.000000e+00 
    79.5                0.000000e+00 0.000000e+00 0.000000e+00 0.000000e+00 0.000000e+00 0.000000e+00 0.000000e+00 0.000000e+00 0.000000e+00 0.000000e+00 0.000000e+00 0.000000e+00 


