# 80 rows of flux data
# 12 columns of flux data
# 
# total cross-sectional flux  2.184490e+00 /m^2/yr
#
#                       +x vernal eq.           -x           +y           -y +z eclip. N. -z eclip. S.        Earth          Sun     anti-Sun      rot (x)      rot (y)      rot (z) 
# average speed (km/s)         23.93        24.55        24.18        24.30        21.93        19.30        24.50        24.65        24.66        23.62        23.62        24.25 
# total flux (#/m2/yr)  6.517820e-01 6.793438e-01 6.627943e-01 6.687886e-01 1.324536e-01 3.061067e-01 1.237336e+00 9.474918e-01 9.603504e-01 1.485412e+00 1.485051e+00 2.091275e+00 
# velocity (km/s)
     0.5                0.000000e+00 0.000000e+00 0.000000e+00 0.000000e+00 0.000000e+00 0.000000e+00 0.000000e+00 0.000000e+00 0.000000e+00 0.000000e+00 0.000000e+00 0.000000e+00 
     1.5                0.000000e+00 0.000000e+00 0.000000e+00 0.000000e+00 0.000000e+00 0.000000e+00 0.000000e+00 0.000000e+00 0.000000e+00 0.000000e+00 0.000000e+00 0.000000e+00 
     2.5                6.629576e-07 9.929170e-07 2.896182e-06 2.869349e-06 3.258143e-08 1.872783e-06 1.856531e-06 2.921272e-07 1.597987e-06 6.157966e-06 2.717331e-06 6.158539e-06 
     3.5                7.140779e-05 4.693861e-05 6.238102e-05 6.128273e-05 6.470240e-06 4.966269e-05 9.563464e-05 2.730286e-05 5.625787e-05 1.443938e-04 1.405709e-04 1.903661e-04 
     4.5                4.499860e-04 2.214165e-04 3.475718e-04 3.295755e-04 6.340902e-05 2.792968e-04 5.690960e-04 1.923724e-04 2.934186e-04 8.181449e-04 8.105683e-04 1.057222e-03 
     5.5                1.292997e-03 8.194249e-04 1.116506e-03 1.062494e-03 2.554718e-04 9.789202e-04 1.904304e-03 7.781265e-04 9.721481e-04 2.705838e-03 2.648272e-03 3.371260e-03 
     6.5                2.738774e-03 2.089732e-03 2.485010e-03 2.368721e-03 6.317226e-04 2.251505e-03 4.238973e-03 1.970061e-03 2.216420e-03 6.102631e-03 6.072671e-03 7.605364e-03 
     7.5                4.645070e-03 3.981931e-03 4.371005e-03 4.262765e-03 1.127352e-03 4.165960e-03 7.466515e-03 3.813507e-03 4.023676e-03 1.095426e-02 1.096707e-02 1.354986e-02 
     8.5                7.138115e-03 6.514375e-03 6.892906e-03 6.787850e-03 1.851034e-03 6.438147e-03 1.203547e-02 6.420688e-03 6.502174e-03 1.727664e-02 1.726369e-02 2.146597e-02 
     9.5                9.791312e-03 9.172249e-03 9.550057e-03 9.430033e-03 2.629028e-03 9.005559e-03 1.676186e-02 9.532151e-03 9.529051e-03 2.405408e-02 2.406565e-02 2.980011e-02 
    10.5                1.226549e-02 1.172062e-02 1.204318e-02 1.194173e-02 3.259965e-03 1.188895e-02 2.069869e-02 1.296853e-02 1.304566e-02 3.073520e-02 3.072605e-02 3.767993e-02 
    11.5                1.421957e-02 1.377431e-02 1.405130e-02 1.395461e-02 3.723604e-03 1.421420e-02 2.422513e-02 1.633630e-02 1.652526e-02 3.613931e-02 3.613083e-02 4.399203e-02 
    12.5                1.564435e-02 1.553724e-02 1.561534e-02 1.558830e-02 4.039426e-03 1.564127e-02 2.690170e-02 1.937336e-02 1.958733e-02 4.014425e-02 4.014722e-02 4.899884e-02 
    13.5                1.737682e-02 1.695060e-02 1.719662e-02 1.711577e-02 4.416902e-03 1.657109e-02 2.975899e-02 2.233402e-02 2.254931e-02 4.381132e-02 4.381840e-02 5.390537e-02 
    14.5                1.913411e-02 1.860234e-02 1.896794e-02 1.886186e-02 4.882834e-03 1.695503e-02 3.326566e-02 2.545418e-02 2.571041e-02 4.747467e-02 4.738748e-02 5.935065e-02 
    15.5                2.066129e-02 2.033607e-02 2.057654e-02 2.051569e-02 5.295401e-03 1.676417e-02 3.660738e-02 2.842928e-02 2.871561e-02 5.051066e-02 5.041401e-02 6.447975e-02 
    16.5                2.225667e-02 2.195512e-02 2.216115e-02 2.209662e-02 5.596145e-03 1.663727e-02 3.971756e-02 3.123489e-02 3.154203e-02 5.344494e-02 5.341426e-02 6.948217e-02 
    17.5                2.345242e-02 2.340679e-02 2.344122e-02 2.343390e-02 5.842442e-03 1.607663e-02 4.241426e-02 3.373533e-02 3.406315e-02 5.558140e-02 5.556535e-02 7.361313e-02 
    18.5                2.445271e-02 2.460381e-02 2.457486e-02 2.460481e-02 6.060552e-03 1.524258e-02 4.493844e-02 3.593533e-02 3.628434e-02 5.725871e-02 5.713968e-02 7.715413e-02 
    19.5                2.524213e-02 2.569772e-02 2.543283e-02 2.552114e-02 6.176491e-03 1.461980e-02 4.681922e-02 3.770309e-02 3.807357e-02 5.856611e-02 5.855772e-02 8.002352e-02 
    20.5                2.584648e-02 2.633470e-02 2.601562e-02 2.611141e-02 6.162811e-03 1.374835e-02 4.817306e-02 3.891467e-02 3.931085e-02 5.914493e-02 5.919390e-02 8.191942e-02 
    21.5                2.669349e-02 2.691121e-02 2.678629e-02 2.683488e-02 6.149951e-03 1.287935e-02 4.980713e-02 4.022946e-02 4.066135e-02 5.999875e-02 5.997809e-02 8.421176e-02 
    22.5                2.742312e-02 2.775643e-02 2.758381e-02 2.765005e-02 6.197267e-03 1.231916e-02 5.162113e-02 4.159856e-02 4.206756e-02 6.122815e-02 6.117905e-02 8.671880e-02 
    23.5                2.773806e-02 2.839169e-02 2.800023e-02 2.813432e-02 6.139815e-03 1.145490e-02 5.267063e-02 4.236676e-02 4.286745e-02 6.153192e-02 6.152901e-02 8.817308e-02 
    24.5                2.785831e-02 2.852031e-02 2.813236e-02 2.826637e-02 5.960468e-03 1.059541e-02 5.309371e-02 4.256920e-02 4.310227e-02 6.124422e-02 6.122708e-02 8.857445e-02 
    25.5                2.772960e-02 2.858027e-02 2.808855e-02 2.826345e-02 5.714752e-03 9.662884e-03 5.326354e-02 4.247638e-02 4.303886e-02 6.062590e-02 6.058307e-02 8.848485e-02 
    26.5                2.718494e-02 2.834030e-02 2.765045e-02 2.788550e-02 5.388583e-03 8.751467e-03 5.268060e-02 4.181355e-02 4.238847e-02 5.927986e-02 5.927185e-02 8.722653e-02 
    27.5                2.642070e-02 2.772464e-02 2.694359e-02 2.721245e-02 5.022489e-03 7.856631e-03 5.140982e-02 4.068160e-02 4.126140e-02 5.740846e-02 5.739814e-02 8.505962e-02 
    28.5                2.556772e-02 2.685343e-02 2.608365e-02 2.635026e-02 4.635250e-03 7.032259e-03 4.996154e-02 3.926335e-02 3.984224e-02 5.525079e-02 5.523776e-02 8.235322e-02 
    29.5                2.446955e-02 2.591740e-02 2.504780e-02 2.534720e-02 4.244912e-03 6.219120e-03 4.809945e-02 3.759643e-02 3.816996e-02 5.279547e-02 5.278668e-02 7.915399e-02 
    30.5                2.312908e-02 2.473914e-02 2.376437e-02 2.410133e-02 3.810948e-03 5.433960e-03 4.576113e-02 3.555519e-02 3.611243e-02 4.987528e-02 4.987765e-02 7.518903e-02 
    31.5                2.167868e-02 2.332086e-02 2.233639e-02 2.267875e-02 3.360713e-03 4.647517e-03 4.310222e-02 3.325063e-02 3.378452e-02 4.665391e-02 4.663969e-02 7.069727e-02 
    32.5                1.995956e-02 2.176457e-02 2.067511e-02 2.105516e-02 2.906750e-03 3.926654e-03 4.002600e-02 3.062773e-02 3.113079e-02 4.305039e-02 4.304205e-02 6.554431e-02 
    33.5                1.804480e-02 1.997668e-02 1.881200e-02 1.921792e-02 2.484010e-03 3.284222e-03 3.649634e-02 2.771500e-02 2.817686e-02 3.908354e-02 3.907479e-02 5.973044e-02 
    34.5                1.602239e-02 1.802835e-02 1.681079e-02 1.723470e-02 2.080900e-03 2.702759e-03 3.269682e-02 2.463595e-02 2.505176e-02 3.487358e-02 3.487757e-02 5.348279e-02 
    35.5                1.407429e-02 1.597432e-02 1.481915e-02 1.522089e-02 1.695030e-03 2.164962e-03 2.886041e-02 2.156957e-02 2.193907e-02 3.066752e-02 3.067507e-02 4.719333e-02 
    36.5                1.210337e-02 1.400454e-02 1.283761e-02 1.324301e-02 1.343076e-03 1.681957e-03 2.509364e-02 1.857292e-02 1.889334e-02 2.653724e-02 2.656246e-02 4.098832e-02 
    37.5                1.022704e-02 1.204847e-02 1.094616e-02 1.133350e-02 1.039925e-03 1.281164e-03 2.143123e-02 1.571055e-02 1.598474e-02 2.260388e-02 2.259852e-02 3.499333e-02 
    38.5                8.403335e-03 1.015380e-02 9.082707e-03 9.456837e-03 7.819714e-04 9.465218e-04 1.786274e-02 1.295701e-02 1.318344e-02 1.876122e-02 1.877769e-02 2.913555e-02 
    39.5                6.612632e-03 8.328043e-03 7.282635e-03 7.649322e-03 5.628875e-04 6.708786e-04 1.437862e-02 1.032773e-02 1.050614e-02 1.507593e-02 1.508361e-02 2.346144e-02 
    40.5                4.961924e-03 6.552658e-03 5.576845e-03 5.917386e-03 3.827325e-04 4.503433e-04 1.106169e-02 7.869960e-03 8.004015e-03 1.158222e-02 1.160148e-02 1.807084e-02 
    41.5                3.548390e-03 4.920337e-03 4.072034e-03 4.366844e-03 2.442220e-04 2.844248e-04 8.105508e-03 5.721384e-03 5.816064e-03 8.488879e-03 8.517876e-03 1.327907e-02 
    42.5                2.404507e-03 3.520973e-03 2.827352e-03 3.067740e-03 1.452991e-04 1.679565e-04 5.662008e-03 3.955871e-03 4.020135e-03 5.921483e-03 5.951087e-03 9.283656e-03 
    43.5                1.496742e-03 2.390201e-03 1.836329e-03 2.028806e-03 7.974251e-05 9.169728e-05 3.706699e-03 2.565373e-03 2.605172e-03 3.877906e-03 3.899183e-03 6.088277e-03 
    44.5                8.180216e-04 1.495843e-03 1.069955e-03 1.216342e-03 3.866179e-05 4.449812e-05 2.179790e-03 1.506254e-03 1.527010e-03 2.291668e-03 2.318937e-03 3.612825e-03 
    45.5                3.714254e-04 8.223231e-04 5.338448e-04 6.315573e-04 1.573880e-05 1.820239e-05 1.103888e-03 7.648708e-04 7.735495e-04 1.167282e-03 1.195434e-03 1.852791e-03 
    46.5                1.257877e-04 3.763195e-04 2.137975e-04 2.682370e-04 5.084541e-06 5.956787e-06 4.459377e-04 3.162870e-04 3.188753e-04 4.825569e-04 5.025568e-04 7.728824e-04 
    47.5                2.968417e-05 1.288921e-04 6.191891e-05 8.382237e-05 1.159550e-06 1.398994e-06 1.309246e-04 9.722810e-05 9.729784e-05 1.458496e-04 1.586540e-04 2.390217e-04 
    48.5                4.347635e-06 3.087000e-05 1.230328e-05 1.821656e-05 1.649792e-07 2.087422e-07 2.632194e-05 2.087126e-05 2.075404e-05 3.053116e-05 3.522492e-05 5.162824e-05 
    49.5                1.497960e-07 4.404829e-06 1.283099e-06 2.249211e-06 1.196450e-08 1.685550e-08 2.813810e-06 2.565948e-06 2.523755e-06 3.532964e-06 4.554919e-06 6.349952e-06 
    50.5                0.000000e+00 1.318339e-07 2.155058e-08 5.450353e-08 8.839698e-11 2.108612e-10 5.296840e-08 6.677042e-08 6.377753e-08 7.605729e-08 1.318347e-07 1.635328e-07 
    51.5                0.000000e+00 0.000000e+00 0.000000e+00 0.000000e+00 0.000000e+00 0.000000e+00 0.000000e+00 0.000000e+00 0.000000e+00 0.000000e+00 0.000000e+00 0.000000e+00 
    52.5                0.000000e+00 0.000000e+00 0.000000e+00 0.000000e+00 0.000000e+00 0.000000e+00 0.000000e+00 0.000000e+00 0.000000e+00 0.000000e+00 0.000000e+00 0.000000e+00 
    53.5                0.000000e+00 0.000000e+00 0.000000e+00 0.000000e+00 0.000000e+00 0.000000e+00 0.000000e+00 0.000000e+00 0.000000e+00 0.000000e+00 0.000000e+00 0.000000e+00 
    54.5                0.000000e+00 0.000000e+00 0.000000e+00 0.000000e+00 0.000000e+00 0.000000e+00 0.000000e+00 0.000000e+00 0.000000e+00 0.000000e+00 0.000000e+00 0.000000e+00 
    55.5                0.000000e+00 0.000000e+00 0.000000e+00 0.000000e+00 0.000000e+00 0.000000e+00 0.000000e+00 0.000000e+00 0.000000e+00 0.000000e+00 0.000000e+00 0.000000e+00 
    56.5                0.000000e+00 0.000000e+00 0.000000e+00 0.000000e+00 0.000000e+00 0.000000e+00 0.000000e+00 0.000000e+00 0.000000e+00 0.000000e+00 0.000000e+00 0.000000e+00 
    57.5                0.000000e+00 0.000000e+00 0.000000e+00 0.000000e+00 0.000000e+00 0.000000e+00 0.000000e+00 0.000000e+00 0.000000e+00 0.000000e+00 0.000000e+00 0.000000e+00 
    58.5                0.000000e+00 0.000000e+00 0.000000e+00 0.000000e+00 0.000000e+00 0.000000e+00 0.000000e+00 0.000000e+00 0.000000e+00 0.000000e+00 0.000000e+00 0.000000e+00 
    59.5                0.000000e+00 0.000000e+00 0.000000e+00 0.000000e+00 0.000000e+00 0.000000e+00 0.000000e+00 0.000000e+00 0.000000e+00 0.000000e+00 0.000000e+00 0.000000e+00 
    60.5                0.000000e+00 0.000000e+00 0.000000e+00 0.000000e+00 0.000000e+00 0.000000e+00 0.000000e+00 0.000000e+00 0.000000e+00 0.000000e+00 0.000000e+00 0.000000e+00 
    61.5                0.000000e+00 0.000000e+00 0.000000e+00 0.000000e+00 0.000000e+00 0.000000e+00 0.000000e+00 0.000000e+00 0.000000e+00 0.000000e+00 0.000000e+00 0.000000e+00 
    62.5                0.000000e+00 0.000000e+00 0.000000e+00 0.000000e+00 0.000000e+00 0.000000e+00 0.000000e+00 0.000000e+00 0.000000e+00 0.000000e+00 0.000000e+00 0.000000e+00 
    63.5                0.000000e+00 0.000000e+00 0.000000e+00 0.000000e+00 0.000000e+00 0.000000e+00 0.000000e+00 0.000000e+00 0.000000e+00 0.000000e+00 0.000000e+00 0.000000e+00 
    64.5                0.000000e+00 0.000000e+00 0.000000e+00 0.000000e+00 0.000000e+00 0.000000e+00 0.000000e+00 0.000000e+00 0.000000e+00 0.000000e+00 0.000000e+00 0.000000e+00 
    65.5                0.000000e+00 0.000000e+00 0.000000e+00 0.000000e+00 0.000000e+00 0.000000e+00 0.000000e+00 0.000000e+00 0.000000e+00 0.000000e+00 0.000000e+00 0.000000e+00 
    66.5                0.000000e+00 0.000000e+00 0.000000e+00 0.000000e+00 0.000000e+00 0.000000e+00 0.000000e+00 0.000000e+00 0.000000e+00 0.000000e+00 0.000000e+00 0.000000e+00 
    67.5                0.000000e+00 0.000000e+00 0.000000e+00 0.000000e+00 0.000000e+00 0.000000e+00 0.000000e+00 0.000000e+00 0.000000e+00 0.000000e+00 0.000000e+00 0.000000e+00 
    68.5                0.000000e+00 0.000000e+00 0.000000e+00 0.000000e+00 0.000000e+00 0.000000e+00 0.000000e+00 0.000000e+00 0.000000e+00 0.000000e+00 0.000000e+00 0.000000e+00 
    69.5                0.000000e+00 0.000000e+00 0.000000e+00 0.000000e+00 0.000000e+00 0.000000e+00 0.000000e+00 0.000000e+00 0.000000e+00 0.000000e+00 0.000000e+00 0.000000e+00 
    70.5                0.000000e+00 0.000000e+00 0.000000e+00 0.000000e+00 0.000000e+00 0.000000e+00 0.000000e+00 0.000000e+00 0.000000e+00 0.000000e+00 0.000000e+00 0.000000e+00 
    71.5                0.000000e+00 0.000000e+00 0.000000e+00 0.000000e+00 0.000000e+00 0.000000e+00 0.000000e+00 0.000000e+00 0.000000e+00 0.000000e+00 0.000000e+00 0.000000e+00 
    72.5                0.000000e+00 0.000000e+00 0.000000e+00 0.000000e+00 0.000000e+00 0.000000e+00 0.000000e+00 0.000000e+00 0.000000e+00 0.000000e+00 0.000000e+00 0.000000e+00 
    73.5                0.000000e+00 0.000000e+00 0.000000e+00 0.000000e+00 0.000000e+00 0.000000e+00 0.000000e+00 0.000000e+00 0.000000e+00 0.000000e+00 0.000000e+00 0.000000e+00 
    74.5                0.000000e+00 0.000000e+00 0.000000e+00 0.000000e+00 0.000000e+00 0.000000e+00 0.000000e+00 0.000000e+00 0.000000e+00 0.000000e+00 0.000000e+00 0.000000e+00 
    75.5                0.000000e+00 0.000000e+00 0.000000e+00 0.000000e+00 0.000000e+00 0.000000e+00 0.000000e+00 0.000000e+00 0.000000e+00 0.000000e+00 0.000000e+00 0.000000e+00 
    76.5                0.000000e+00 0.000000e+00 0.000000e+00 0.000000e+00 0.000000e+00 0.000000e+00 0.000000e+00 0.000000e+00 0.000000e+00 0.000000e+00 0.000000e+00 0.000000e+00 
    77.5                0.000000e+00 0.000000e+00 0.000000e+00 0.000000e+00 0.000000e+00 0.000000e+00 0.000000e+00 0.000000e+00 0.000000e+00 0.000000e+00 0.000000e+00 0.000000e+00 
    78.5                0.000000e+00 0.000000e+00 0.000000e+00 0.000000e+00 0.000000e+00 0.000000e+00 0.000000e+00 0.000000e+00 0.000000e+00 0.000000e+00 0.000000e+00 0.000000e+00 
    79.5                0.000000e+00 0.000000e+00 0.000000e+00 0.000000e+00 0.000000e+00 0.000000e+00 0.000000e+00 0.000000e+00 0.000000e+00 0.000000e+00 0.000000e+00 0.000000e+00 


