# 80 rows of flux data
# 12 columns of flux data
# 
# total cross-sectional flux  2.358343e+00 /m^2/yr
#
#                             +x ram      -x wake      +y port -y starboard    +z zenith     -z nadir        Earth          Sun     anti-Sun      rot (x)      rot (y)      rot (z) 
# average speed (km/s)         25.03        24.20        25.38        23.14        20.48        27.84        23.26        24.97        24.96        23.92        24.06        24.59 
# total flux (#/m2/yr)  7.830820e-01 6.678985e-01 8.790932e-01 5.509644e-01 4.484084e-01 2.744260e-03 5.303975e-01 1.036836e+00 1.032972e+00 1.586283e+00 1.610011e+00 2.262977e+00 
# velocity (km/s)
     0.5                0.000000e+00 0.000000e+00 0.000000e+00 0.000000e+00 0.000000e+00 0.000000e+00 0.000000e+00 0.000000e+00 0.000000e+00 0.000000e+00 0.000000e+00 0.000000e+00 
     1.5                0.000000e+00 0.000000e+00 0.000000e+00 0.000000e+00 0.000000e+00 0.000000e+00 0.000000e+00 0.000000e+00 0.000000e+00 0.000000e+00 0.000000e+00 0.000000e+00 
     2.5                0.000000e+00 5.551502e-06 1.128105e-06 1.193583e-06 2.403719e-06 4.631620e-11 1.083845e-06 9.163653e-07 7.389078e-07 3.561611e-06 6.111181e-06 6.235058e-06 
     3.5                6.312934e-06 1.461842e-04 7.443806e-05 7.109620e-05 7.298029e-05 7.144723e-08 6.790229e-05 5.344481e-05 5.027730e-05 1.746121e-04 1.783869e-04 2.346533e-04 
     4.5                1.811369e-04 6.090316e-04 4.061615e-04 3.618554e-04 3.855653e-04 6.227145e-07 3.450334e-04 2.935069e-04 2.798356e-04 9.265075e-04 9.412006e-04 1.223520e-03 
     5.5                6.969441e-04 1.567825e-03 1.263193e-03 1.098657e-03 1.290265e-03 2.049013e-06 1.042396e-03 9.746275e-04 9.449553e-04 2.909807e-03 2.824694e-03 3.637005e-03 
     6.5                2.109900e-03 2.915046e-03 2.729120e-03 2.375962e-03 2.893914e-03 4.358795e-06 2.249576e-03 2.230572e-03 2.195367e-03 6.346325e-03 6.289280e-03 7.954890e-03 
     7.5                3.817043e-03 5.114000e-03 4.757381e-03 4.173717e-03 5.261538e-03 7.639325e-06 3.943035e-03 4.102778e-03 4.078415e-03 1.125310e-02 1.125981e-02 1.402753e-02 
     8.5                6.368238e-03 7.549034e-03 7.533100e-03 6.632455e-03 8.201890e-03 1.221839e-05 6.271922e-03 6.683490e-03 6.680216e-03 1.773209e-02 1.751116e-02 2.205251e-02 
     9.5                9.643060e-03 9.580602e-03 1.039394e-02 9.191951e-03 1.147428e-02 1.705260e-05 8.683121e-03 9.819827e-03 9.818328e-03 2.458969e-02 2.430997e-02 3.048332e-02 
    10.5                1.290064e-02 1.162171e-02 1.288299e-02 1.146292e-02 1.484831e-02 2.120409e-05 1.079648e-02 1.338114e-02 1.335972e-02 3.097748e-02 3.117914e-02 3.838186e-02 
    11.5                1.516650e-02 1.341550e-02 1.521613e-02 1.343826e-02 1.759638e-02 2.586079e-05 1.263868e-02 1.690577e-02 1.686600e-02 3.662801e-02 3.663925e-02 4.495727e-02 
    12.5                1.740871e-02 1.470480e-02 1.702799e-02 1.481519e-02 1.936534e-02 3.020288e-05 1.392441e-02 2.007455e-02 2.002866e-02 4.070820e-02 4.094618e-02 5.023669e-02 
    13.5                1.878999e-02 1.673347e-02 1.885986e-02 1.620262e-02 2.067596e-02 3.512453e-05 1.524262e-02 2.316229e-02 2.311639e-02 4.447649e-02 4.489970e-02 5.542868e-02 
    14.5                2.052300e-02 1.852149e-02 2.109708e-02 1.777875e-02 2.155328e-02 4.058593e-05 1.676931e-02 2.646573e-02 2.641735e-02 4.844589e-02 4.861612e-02 6.119513e-02 
    15.5                2.236824e-02 2.018788e-02 2.326156e-02 1.915849e-02 2.182712e-02 4.689192e-05 1.813001e-02 2.964605e-02 2.959190e-02 5.179465e-02 5.192215e-02 6.674855e-02 
    16.5                2.435727e-02 2.171888e-02 2.537771e-02 2.045091e-02 2.203919e-02 5.371425e-05 1.940723e-02 3.265879e-02 3.259947e-02 5.498599e-02 5.525708e-02 7.217234e-02 
    17.5                2.583403e-02 2.319840e-02 2.728296e-02 2.144967e-02 2.177496e-02 6.061920e-05 2.041287e-02 3.540418e-02 3.533928e-02 5.744437e-02 5.773717e-02 7.678192e-02 
    18.5                2.721618e-02 2.430205e-02 2.905748e-02 2.231409e-02 2.123375e-02 6.750327e-05 2.129874e-02 3.787445e-02 3.780272e-02 5.947586e-02 5.965461e-02 8.080961e-02 
    19.5                2.852776e-02 2.519851e-02 3.051509e-02 2.288255e-02 2.078089e-02 7.427769e-05 2.188582e-02 3.990040e-02 3.982475e-02 6.104721e-02 6.142686e-02 8.413589e-02 
    20.5                2.927566e-02 2.603725e-02 3.173127e-02 2.310222e-02 1.997602e-02 8.068917e-05 2.214213e-02 4.136757e-02 4.128169e-02 6.191687e-02 6.243635e-02 8.650825e-02 
    21.5                2.993170e-02 2.719784e-02 3.318045e-02 2.346141e-02 1.917815e-02 8.792590e-05 2.253963e-02 4.297273e-02 4.287451e-02 6.311253e-02 6.364851e-02 8.935429e-02 
    22.5                3.101798e-02 2.792022e-02 3.462346e-02 2.398288e-02 1.873010e-02 9.465835e-05 2.308195e-02 4.460842e-02 4.450122e-02 6.469941e-02 6.512795e-02 9.232115e-02 
    23.5                3.192727e-02 2.831874e-02 3.561101e-02 2.416439e-02 1.787310e-02 1.012539e-04 2.330535e-02 4.564492e-02 4.553041e-02 6.529784e-02 6.586439e-02 9.426291e-02 
    24.5                3.220078e-02 2.861662e-02 3.632959e-02 2.398273e-02 1.690850e-02 1.072006e-04 2.317234e-02 4.610477e-02 4.597778e-02 6.530693e-02 6.591034e-02 9.513432e-02 
    25.5                3.243319e-02 2.863782e-02 3.693646e-02 2.363644e-02 1.581151e-02 1.132077e-04 2.288292e-02 4.626736e-02 4.612708e-02 6.500481e-02 6.562607e-02 9.553613e-02 
    26.5                3.246772e-02 2.807380e-02 3.706622e-02 2.298672e-02 1.464557e-02 1.181421e-04 2.229341e-02 4.582589e-02 4.567471e-02 6.397606e-02 6.458632e-02 9.471731e-02 
    27.5                3.196157e-02 2.750954e-02 3.666037e-02 2.207081e-02 1.344099e-02 1.212864e-04 2.143911e-02 4.483200e-02 4.467435e-02 6.216754e-02 6.304004e-02 9.283413e-02 
    28.5                3.109587e-02 2.674248e-02 3.618441e-02 2.105939e-02 1.228538e-02 1.237010e-04 2.048823e-02 4.353462e-02 4.336652e-02 6.025009e-02 6.098216e-02 9.038714e-02 
    29.5                3.030726e-02 2.564756e-02 3.534668e-02 1.989454e-02 1.112998e-02 1.247037e-04 1.938394e-02 4.192581e-02 4.175274e-02 5.782742e-02 5.869484e-02 8.733315e-02 
    30.5                2.907573e-02 2.443416e-02 3.418206e-02 1.856297e-02 9.947296e-03 1.249089e-04 1.811412e-02 3.990559e-02 3.972920e-02 5.494371e-02 5.585784e-02 8.345622e-02 
    31.5                2.771921e-02 2.302939e-02 3.288743e-02 1.707619e-02 8.742192e-03 1.253523e-04 1.669039e-02 3.763838e-02 3.745537e-02 5.178687e-02 5.272523e-02 7.910719e-02 
    32.5                2.614438e-02 2.127495e-02 3.120100e-02 1.539633e-02 7.592779e-03 1.225776e-04 1.507110e-02 3.492209e-02 3.473590e-02 4.809448e-02 4.906611e-02 7.384537e-02 
    33.5                2.433888e-02 1.924524e-02 2.897679e-02 1.369380e-02 6.521226e-03 1.176405e-04 1.342320e-02 3.182579e-02 3.164323e-02 4.388815e-02 4.494942e-02 6.775042e-02 
    34.5                2.214226e-02 1.723491e-02 2.646204e-02 1.195587e-02 5.512346e-03 1.109485e-04 1.173595e-02 2.850555e-02 2.833098e-02 3.939390e-02 4.049495e-02 6.110870e-02 
    35.5                1.987503e-02 1.521814e-02 2.390494e-02 1.017391e-02 4.567882e-03 1.032808e-04 1.000056e-02 2.516032e-02 2.499350e-02 3.484126e-02 3.598551e-02 5.433850e-02 
    36.5                1.759046e-02 1.322249e-02 2.132518e-02 8.440974e-03 3.708589e-03 9.479728e-05 8.310184e-03 2.185649e-02 2.169655e-02 3.034176e-02 3.150938e-02 4.758889e-02 
    37.5                1.538563e-02 1.123718e-02 1.868016e-02 6.844034e-03 2.965878e-03 8.531557e-05 6.748286e-03 1.864919e-02 1.850199e-02 2.595209e-02 2.716014e-02 4.096666e-02 
    38.5                1.316979e-02 9.247016e-03 1.594757e-02 5.387208e-03 2.318813e-03 7.452704e-05 5.320453e-03 1.550717e-02 1.537528e-02 2.164356e-02 2.282333e-02 3.437685e-02 
    39.5                1.100017e-02 7.269106e-03 1.313760e-02 4.044318e-03 1.758013e-03 6.238401e-05 4.000993e-03 1.244280e-02 1.232938e-02 1.739735e-02 1.856679e-02 2.785884e-02 
    40.5                8.817522e-03 5.428402e-03 1.032353e-02 2.866017e-03 1.278382e-03 4.962154e-05 2.840449e-03 9.532252e-03 9.439760e-03 1.333322e-02 1.445573e-02 2.156663e-02 
    41.5                6.748190e-03 3.867481e-03 7.714314e-03 1.905447e-03 8.898791e-04 3.749634e-05 1.892259e-03 6.960068e-03 6.888691e-03 9.711268e-03 1.075742e-02 1.591538e-02 
    42.5                4.897067e-03 2.592176e-03 5.474121e-03 1.173423e-03 5.943955e-04 2.641427e-05 1.167831e-03 4.813532e-03 4.761676e-03 6.703282e-03 7.581637e-03 1.112699e-02 
    43.5                3.400178e-03 1.554968e-03 3.623502e-03 6.692369e-04 3.750798e-04 1.732557e-05 6.677134e-04 3.116334e-03 3.082257e-03 4.324897e-03 5.012295e-03 7.286099e-03 
    44.5                2.180253e-03 8.058403e-04 2.149020e-03 3.427667e-04 2.144497e-04 1.032799e-05 3.431222e-04 1.826771e-03 1.807736e-03 2.508832e-03 3.017806e-03 4.320926e-03 
    45.5                1.227281e-03 3.300074e-04 1.093717e-03 1.514229e-04 1.063065e-04 5.299872e-06 1.521734e-04 9.252303e-04 9.162509e-04 1.253050e-03 1.572491e-03 2.213436e-03 
    46.5                5.782603e-04 9.544133e-05 4.432567e-04 5.736741e-05 4.244708e-05 2.300113e-06 5.791355e-05 3.838949e-04 3.812448e-04 5.036755e-04 6.794330e-04 9.292727e-04 
    47.5                2.013973e-04 1.819955e-05 1.305144e-04 1.701468e-05 1.241319e-05 7.651993e-07 1.725345e-05 1.189905e-04 1.186117e-04 1.484213e-04 2.211368e-04 2.913918e-04 
    48.5                4.916735e-05 1.520013e-06 2.631782e-05 3.707828e-06 2.485420e-06 1.829526e-07 3.774792e-06 2.589447e-05 2.596209e-05 3.020632e-05 5.095176e-05 6.421885e-05 
    49.5                6.939049e-06 1.197221e-08 2.834581e-06 5.020304e-07 2.701132e-07 2.655941e-08 5.129719e-07 3.277000e-06 3.307210e-06 3.358044e-06 6.969580e-06 8.204677e-06 
    50.5                2.077829e-07 0.000000e+00 5.393317e-08 1.607426e-08 5.334135e-09 8.622561e-10 1.648419e-08 8.992132e-08 8.957587e-08 7.053839e-08 2.079466e-07 2.247101e-07 
    51.5                0.000000e+00 0.000000e+00 0.000000e+00 0.000000e+00 0.000000e+00 0.000000e+00 0.000000e+00 0.000000e+00 0.000000e+00 0.000000e+00 0.000000e+00 0.000000e+00 
    52.5                0.000000e+00 0.000000e+00 0.000000e+00 0.000000e+00 0.000000e+00 0.000000e+00 0.000000e+00 0.000000e+00 0.000000e+00 0.000000e+00 0.000000e+00 0.000000e+00 
    53.5                0.000000e+00 0.000000e+00 0.000000e+00 0.000000e+00 0.000000e+00 0.000000e+00 0.000000e+00 0.000000e+00 0.000000e+00 0.000000e+00 0.000000e+00 0.000000e+00 
    54.5                0.000000e+00 0.000000e+00 0.000000e+00 0.000000e+00 0.000000e+00 0.000000e+00 0.000000e+00 0.000000e+00 0.000000e+00 0.000000e+00 0.000000e+00 0.000000e+00 
    55.5                0.000000e+00 0.000000e+00 0.000000e+00 0.000000e+00 0.000000e+00 0.000000e+00 0.000000e+00 0.000000e+00 0.000000e+00 0.000000e+00 0.000000e+00 0.000000e+00 
    56.5                0.000000e+00 0.000000e+00 0.000000e+00 0.000000e+00 0.000000e+00 0.000000e+00 0.000000e+00 0.000000e+00 0.000000e+00 0.000000e+00 0.000000e+00 0.000000e+00 
    57.5                0.000000e+00 0.000000e+00 0.000000e+00 0.000000e+00 0.000000e+00 0.000000e+00 0.000000e+00 0.000000e+00 0.000000e+00 0.000000e+00 0.000000e+00 0.000000e+00 
    58.5                0.000000e+00 0.000000e+00 0.000000e+00 0.000000e+00 0.000000e+00 0.000000e+00 0.000000e+00 0.000000e+00 0.000000e+00 0.000000e+00 0.000000e+00 0.000000e+00 
    59.5                0.000000e+00 0.000000e+00 0.000000e+00 0.000000e+00 0.000000e+00 0.000000e+00 0.000000e+00 0.000000e+00 0.000000e+00 0.000000e+00 0.000000e+00 0.000000e+00 
    60.5                0.000000e+00 0.000000e+00 0.000000e+00 0.000000e+00 0.000000e+00 0.000000e+00 0.000000e+00 0.000000e+00 0.000000e+00 0.000000e+00 0.000000e+00 0.000000e+00 
    61.5                0.000000e+00 0.000000e+00 0.000000e+00 0.000000e+00 0.000000e+00 0.000000e+00 0.000000e+00 0.000000e+00 0.000000e+00 0.000000e+00 0.000000e+00 0.000000e+00 
    62.5                0.000000e+00 0.000000e+00 0.000000e+00 0.000000e+00 0.000000e+00 0.000000e+00 0.000000e+00 0.000000e+00 0.000000e+00 0.000000e+00 0.000000e+00 0.000000e+00 
    63.5                0.000000e+00 0.000000e+00 0.000000e+00 0.000000e+00 0.000000e+00 0.000000e+00 0.000000e+00 0.000000e+00 0.000000e+00 0.000000e+00 0.000000e+00 0.000000e+00 
    64.5                0.000000e+00 0.000000e+00 0.000000e+00 0.000000e+00 0.000000e+00 0.000000e+00 0.000000e+00 0.000000e+00 0.000000e+00 0.000000e+00 0.000000e+00 0.000000e+00 
    65.5                0.000000e+00 0.000000e+00 0.000000e+00 0.000000e+00 0.000000e+00 0.000000e+00 0.000000e+00 0.000000e+00 0.000000e+00 0.000000e+00 0.000000e+00 0.000000e+00 
    66.5                0.000000e+00 0.000000e+00 0.000000e+00 0.000000e+00 0.000000e+00 0.000000e+00 0.000000e+00 0.000000e+00 0.000000e+00 0.000000e+00 0.000000e+00 0.000000e+00 
    67.5                0.000000e+00 0.000000e+00 0.000000e+00 0.000000e+00 0.000000e+00 0.000000e+00 0.000000e+00 0.000000e+00 0.000000e+00 0.000000e+00 0.000000e+00 0.000000e+00 
    68.5                0.000000e+00 0.000000e+00 0.000000e+00 0.000000e+00 0.000000e+00 0.000000e+00 0.000000e+00 0.000000e+00 0.000000e+00 0.000000e+00 0.000000e+00 0.000000e+00 
    69.5                0.000000e+00 0.000000e+00 0.000000e+00 0.000000e+00 0.000000e+00 0.000000e+00 0.000000e+00 0.000000e+00 0.000000e+00 0.000000e+00 0.000000e+00 0.000000e+00 
    70.5                0.000000e+00 0.000000e+00 0.000000e+00 0.000000e+00 0.000000e+00 0.000000e+00 0.000000e+00 0.000000e+00 0.000000e+00 0.000000e+00 0.000000e+00 0.000000e+00 
    71.5                0.000000e+00 0.000000e+00 0.000000e+00 0.000000e+00 0.000000e+00 0.000000e+00 0.000000e+00 0.000000e+00 0.000000e+00 0.000000e+00 0.000000e+00 0.000000e+00 
    72.5                0.000000e+00 0.000000e+00 0.000000e+00 0.000000e+00 0.000000e+00 0.000000e+00 0.000000e+00 0.000000e+00 0.000000e+00 0.000000e+00 0.000000e+00 0.000000e+00 
    73.5                0.000000e+00 0.000000e+00 0.000000e+00 0.000000e+00 0.000000e+00 0.000000e+00 0.000000e+00 0.000000e+00 0.000000e+00 0.000000e+00 0.000000e+00 0.000000e+00 
    74.5                0.000000e+00 0.000000e+00 0.000000e+00 0.000000e+00 0.000000e+00 0.000000e+00 0.000000e+00 0.000000e+00 0.000000e+00 0.000000e+00 0.000000e+00 0.000000e+00 
    75.5                0.000000e+00 0.000000e+00 0.000000e+00 0.000000e+00 0.000000e+00 0.000000e+00 0.000000e+00 0.000000e+00 0.000000e+00 0.000000e+00 0.000000e+00 0.000000e+00 
    76.5                0.000000e+00 0.000000e+00 0.000000e+00 0.000000e+00 0.000000e+00 0.000000e+00 0.000000e+00 0.000000e+00 0.000000e+00 0.000000e+00 0.000000e+00 0.000000e+00 
    77.5                0.000000e+00 0.000000e+00 0.000000e+00 0.000000e+00 0.000000e+00 0.000000e+00 0.000000e+00 0.000000e+00 0.000000e+00 0.000000e+00 0.000000e+00 0.000000e+00 
    78.5                0.000000e+00 0.000000e+00 0.000000e+00 0.000000e+00 0.000000e+00 0.000000e+00 0.000000e+00 0.000000e+00 0.000000e+00 0.000000e+00 0.000000e+00 0.000000e+00 
    79.5                0.000000e+00 0.000000e+00 0.000000e+00 0.000000e+00 0.000000e+00 0.000000e+00 0.000000e+00 0.000000e+00 0.000000e+00 0.000000e+00 0.000000e+00 0.000000e+00 


