# 80 rows of flux data
# 12 columns of flux data
# 
# total cross-sectional flux  1.043508e+00 /m^2/yr
#
#                             +x ram      -x wake      +y port -y starboard    +z zenith     -z nadir        Earth          Sun     anti-Sun      rot (x)      rot (y)      rot (z) 
# average speed (km/s)         37.07        38.35        30.58        43.71        32.49        43.45        33.63        28.18        27.85        33.96        34.84        36.28 
# total flux (#/m2/yr)  2.580132e-01 2.165881e-01 3.452886e-01 1.755390e-01 5.643116e-01 2.817340e-04 1.451170e-01 1.701152e-01 1.674519e-01 8.637913e-01 8.132526e-01 7.793551e-01 
# velocity (km/s)
     0.5                0.000000e+00 0.000000e+00 0.000000e+00 0.000000e+00 0.000000e+00 0.000000e+00 0.000000e+00 0.000000e+00 0.000000e+00 0.000000e+00 0.000000e+00 0.000000e+00 
     1.5                0.000000e+00 0.000000e+00 0.000000e+00 0.000000e+00 0.000000e+00 0.000000e+00 0.000000e+00 0.000000e+00 0.000000e+00 0.000000e+00 0.000000e+00 0.000000e+00 
     2.5                3.113470e-05 1.191213e-04 8.560766e-05 8.426106e-05 1.554876e-04 6.420445e-08 4.189613e-05 8.321263e-05 8.121696e-05 2.562652e-04 2.413621e-04 2.517311e-04 
     3.5                3.596901e-04 4.747398e-04 3.912061e-04 4.614229e-04 7.689573e-04 4.535620e-07 1.950395e-04 4.494382e-04 4.263767e-04 1.283820e-03 1.263179e-03 1.326484e-03 
     4.5                9.627805e-04 8.449240e-04 8.457305e-04 9.468464e-04 1.662721e-03 1.063469e-06 4.063642e-04 9.868898e-04 9.576925e-04 2.739955e-03 2.735121e-03 2.829883e-03 
     5.5                1.615745e-03 1.254574e-03 1.428249e-03 1.406381e-03 2.736116e-03 1.741027e-06 6.596124e-04 1.615155e-03 1.587966e-03 4.417626e-03 4.408268e-03 4.479341e-03 
     6.5                2.284774e-03 1.627161e-03 2.178946e-03 1.801832e-03 3.997094e-03 2.362151e-06 9.515730e-04 2.250819e-03 2.236826e-03 6.316268e-03 6.219005e-03 6.194500e-03 
     7.5                2.850016e-03 1.991150e-03 2.997318e-03 2.084990e-03 5.306493e-03 2.821697e-06 1.249702e-03 2.828662e-03 2.826865e-03 8.209954e-03 7.980330e-03 7.785488e-03 
     8.5                3.364992e-03 2.327337e-03 3.827920e-03 2.306155e-03 6.579945e-03 3.183850e-06 1.541359e-03 3.365172e-03 3.372092e-03 1.002920e-02 9.648064e-03 9.275854e-03 
     9.5                3.780256e-03 2.584093e-03 4.630303e-03 2.465992e-03 7.789987e-03 3.449136e-06 1.806231e-03 3.842652e-03 3.846769e-03 1.171883e-02 1.113442e-02 1.055465e-02 
    10.5                4.115912e-03 2.885481e-03 5.440030e-03 2.553888e-03 8.960009e-03 3.696821e-06 2.068327e-03 4.299733e-03 4.294061e-03 1.332856e-02 1.256248e-02 1.175927e-02 
    11.5                4.482494e-03 3.110098e-03 6.390739e-03 2.625472e-03 1.033572e-02 3.796756e-06 2.336144e-03 4.762597e-03 4.747620e-03 1.516764e-02 1.412843e-02 1.302533e-02 
    12.5                4.747138e-03 3.283527e-03 7.128105e-03 2.598134e-03 1.135926e-02 3.807797e-06 2.570618e-03 5.083501e-03 5.065906e-03 1.651128e-02 1.527780e-02 1.392078e-02 
    13.5                4.908085e-03 3.318321e-03 7.767293e-03 2.535779e-03 1.224995e-02 3.687421e-06 2.680096e-03 5.215429e-03 5.197060e-03 1.759227e-02 1.617089e-02 1.453965e-02 
    14.5                4.811011e-03 3.441151e-03 8.134646e-03 2.467855e-03 1.272902e-02 3.637784e-06 2.747576e-03 5.273719e-03 5.251610e-03 1.816650e-02 1.659543e-02 1.480102e-02 
    15.5                4.965630e-03 3.501690e-03 8.824918e-03 2.378843e-03 1.366222e-02 3.509667e-06 2.911013e-03 5.383148e-03 5.361898e-03 1.932141e-02 1.752319e-02 1.544361e-02 
    16.5                4.921048e-03 3.552603e-03 9.018303e-03 2.318439e-03 1.388862e-02 3.466229e-06 2.946721e-03 5.400512e-03 5.379359e-03 1.958690e-02 1.770852e-02 1.555032e-02 
    17.5                4.936899e-03 3.562821e-03 9.305777e-03 2.223730e-03 1.424096e-02 3.325577e-06 3.022635e-03 5.365558e-03 5.344667e-03 2.000232e-02 1.801433e-02 1.572709e-02 
    18.5                4.902002e-03 3.623267e-03 9.618055e-03 2.113486e-03 1.461446e-02 3.230912e-06 3.104851e-03 5.326224e-03 5.305423e-03 2.043787e-02 1.833241e-02 1.590510e-02 
    19.5                4.860433e-03 3.607827e-03 9.719417e-03 2.035834e-03 1.468092e-02 3.237366e-06 3.164651e-03 5.216046e-03 5.194367e-03 2.052478e-02 1.831502e-02 1.585990e-02 
    20.5                4.783545e-03 3.551286e-03 9.616473e-03 1.875740e-03 1.447428e-02 2.915753e-06 3.138809e-03 5.025046e-03 5.004832e-03 2.016851e-02 1.801602e-02 1.553654e-02 
    21.5                4.633080e-03 3.599228e-03 9.708122e-03 1.780885e-03 1.454265e-02 2.768178e-06 3.168676e-03 4.885606e-03 4.866325e-03 2.022555e-02 1.798318e-02 1.545662e-02 
    22.5                4.696415e-03 3.522920e-03 9.887575e-03 1.678028e-03 1.473392e-02 2.628472e-06 3.244666e-03 4.759924e-03 4.742057e-03 2.044555e-02 1.811664e-02 1.550423e-02 
    23.5                4.476782e-03 3.381420e-03 9.377760e-03 1.541971e-03 1.393806e-02 2.465668e-06 3.096983e-03 4.457038e-03 4.441739e-03 1.933689e-02 1.716110e-02 1.469166e-02 
    24.5                4.218504e-03 3.298283e-03 9.006860e-03 1.415487e-03 1.334485e-02 2.234870e-06 3.020012e-03 4.189891e-03 4.175053e-03 1.851735e-02 1.639598e-02 1.402418e-02 
    25.5                4.124065e-03 3.214210e-03 8.803982e-03 1.339633e-03 1.301910e-02 2.197082e-06 2.963823e-03 3.963773e-03 3.949149e-03 1.805602e-02 1.597180e-02 1.364807e-02 
    26.5                3.950682e-03 3.186597e-03 8.486619e-03 1.275557e-03 1.253162e-02 2.104500e-06 2.919791e-03 3.755099e-03 3.739846e-03 1.742234e-02 1.539517e-02 1.318055e-02 
    27.5                3.885276e-03 3.058164e-03 8.168107e-03 1.173351e-03 1.201329e-02 1.969978e-06 2.883315e-03 3.548259e-03 3.534674e-03 1.673891e-02 1.478757e-02 1.268626e-02 
    28.5                3.707715e-03 2.989143e-03 7.836095e-03 1.061500e-03 1.146874e-02 1.860715e-06 2.819319e-03 3.285823e-03 3.274339e-03 1.600418e-02 1.413578e-02 1.214541e-02 
    29.5                3.565704e-03 2.772618e-03 7.441584e-03 9.474441e-04 1.083873e-02 1.635767e-06 2.713174e-03 2.976729e-03 2.966355e-03 1.513005e-02 1.334526e-02 1.146653e-02 
    30.5                3.302902e-03 2.701467e-03 7.106652e-03 8.494520e-04 1.031025e-02 1.556922e-06 2.589779e-03 2.758564e-03 2.749283e-03 1.437609e-02 1.266298e-02 1.086028e-02 
    31.5                3.191592e-03 2.690367e-03 6.908190e-03 7.626945e-04 9.973468e-03 1.406365e-06 2.597265e-03 2.590668e-03 2.582892e-03 1.394208e-02 1.226731e-02 1.053823e-02 
    32.5                3.102813e-03 2.583382e-03 6.512297e-03 7.091346e-04 9.363049e-03 1.250638e-06 2.520672e-03 2.375005e-03 2.367361e-03 1.314842e-02 1.159609e-02 1.003107e-02 
    33.5                3.010290e-03 2.641711e-03 6.307194e-03 6.883770e-04 9.041666e-03 1.181955e-06 2.525516e-03 2.195075e-03 2.187082e-03 1.277032e-02 1.128393e-02 9.827718e-03 
    34.5                3.065225e-03 2.642240e-03 6.378966e-03 6.431972e-04 9.080933e-03 1.117609e-06 2.603987e-03 2.109180e-03 2.102542e-03 1.285348e-02 1.134308e-02 9.894305e-03 
    35.5                2.950541e-03 2.550904e-03 5.904431e-03 6.355828e-04 8.356118e-03 1.144398e-06 2.507038e-03 1.972336e-03 1.965897e-03 1.195184e-02 1.058947e-02 9.358436e-03 
    36.5                2.856789e-03 2.604719e-03 5.762561e-03 6.533375e-04 8.149015e-03 1.149912e-06 2.502377e-03 1.843984e-03 1.836484e-03 1.172464e-02 1.038737e-02 9.239898e-03 
    37.5                2.978753e-03 2.685765e-03 5.845635e-03 6.809542e-04 8.222343e-03 1.306233e-06 2.579070e-03 1.785774e-03 1.777708e-03 1.189561e-02 1.059286e-02 9.486484e-03 
    38.5                2.898160e-03 2.885482e-03 5.740491e-03 7.876648e-04 8.038676e-03 1.540159e-06 2.625412e-03 1.716781e-03 1.706413e-03 1.180018e-02 1.053003e-02 9.582619e-03 
    39.5                3.128520e-03 2.777602e-03 5.721645e-03 8.654679e-04 7.973130e-03 1.801970e-06 2.700787e-03 1.669870e-03 1.658247e-03 1.184367e-02 1.057428e-02 9.736121e-03 
    40.5                3.074754e-03 2.864918e-03 5.635311e-03 8.403905e-04 7.814087e-03 1.793838e-06 2.698544e-03 1.600355e-03 1.589710e-03 1.164879e-02 1.047005e-02 9.682936e-03 
    41.5                3.107197e-03 3.171021e-03 5.690243e-03 1.016848e-03 7.870029e-03 2.198286e-06 2.824379e-03 1.584019e-03 1.570320e-03 1.192824e-02 1.076646e-02 1.013509e-02 
    42.5                3.395828e-03 3.079860e-03 5.559556e-03 1.253137e-03 7.704096e-03 2.845571e-06 2.862264e-03 1.584385e-03 1.565972e-03 1.192837e-02 1.080779e-02 1.038974e-02 
    43.5                3.308953e-03 3.273163e-03 5.313502e-03 1.413002e-03 7.360251e-03 3.892192e-06 2.792829e-03 1.543993e-03 1.522412e-03 1.160967e-02 1.064342e-02 1.041090e-02 
    44.5                3.476908e-03 3.609446e-03 5.479624e-03 1.816170e-03 7.688796e-03 5.190173e-06 2.951109e-03 1.604563e-03 1.574665e-03 1.240243e-02 1.131011e-02 1.126841e-02 
    45.5                3.850996e-03 3.608651e-03 5.499638e-03 2.055874e-03 7.709896e-03 6.558740e-06 3.022888e-03 1.613882e-03 1.580383e-03 1.268395e-02 1.164278e-02 1.176755e-02 
    46.5                3.782476e-03 3.710005e-03 5.293425e-03 2.257301e-03 7.561882e-03 6.924359e-06 2.945514e-03 1.583542e-03 1.544963e-03 1.256729e-02 1.157448e-02 1.179564e-02 
    47.5                3.926648e-03 3.964640e-03 5.156163e-03 2.597920e-03 7.615400e-03 7.026093e-06 2.891004e-03 1.614715e-03 1.567896e-03 1.275516e-02 1.194553e-02 1.227200e-02 
    48.5                4.027608e-03 4.367664e-03 4.920484e-03 3.223730e-03 7.729306e-03 7.284682e-06 2.781536e-03 1.672146e-03 1.611094e-03 1.314295e-02 1.246505e-02 1.296128e-02 
    49.5                4.481443e-03 4.799194e-03 4.925694e-03 3.782614e-03 8.077513e-03 7.807080e-06 2.815957e-03 1.740924e-03 1.666968e-03 1.388918e-02 1.346608e-02 1.409655e-02 
    50.5                4.780883e-03 5.527901e-03 4.904938e-03 4.670036e-03 8.547189e-03 9.101884e-06 2.851280e-03 1.842143e-03 1.749931e-03 1.497030e-02 1.469887e-02 1.558952e-02 
    51.5                5.478585e-03 6.097313e-03 4.812434e-03 5.900073e-03 9.178050e-03 1.037984e-05 2.841986e-03 1.945663e-03 1.828303e-03 1.633994e-02 1.624366e-02 1.748094e-02 
    52.5                6.190731e-03 6.112667e-03 4.504294e-03 6.678883e-03 9.310091e-03 1.109177e-05 2.688305e-03 2.002661e-03 1.870282e-03 1.675242e-02 1.697474e-02 1.842181e-02 
    53.5                6.320330e-03 6.208205e-03 4.146503e-03 7.093374e-03 9.151263e-03 1.142549e-05 2.499581e-03 2.023483e-03 1.884777e-03 1.660532e-02 1.707545e-02 1.864709e-02 
    54.5                6.450050e-03 5.856572e-03 3.806212e-03 7.264618e-03 8.828514e-03 1.172484e-05 2.319070e-03 2.006305e-03 1.866392e-03 1.617440e-02 1.668137e-02 1.834882e-02 
    55.5                6.384833e-03 5.909558e-03 3.551982e-03 7.230615e-03 8.524913e-03 1.152492e-05 2.171431e-03 1.976285e-03 1.839094e-03 1.566636e-02 1.645694e-02 1.810646e-02 
    56.5                6.253069e-03 5.639057e-03 3.256724e-03 7.259960e-03 8.218265e-03 1.112139e-05 2.007397e-03 1.929381e-03 1.793352e-03 1.517973e-02 1.592081e-02 1.758253e-02 
    57.5                6.022072e-03 5.151363e-03 2.842090e-03 6.909681e-03 7.566511e-03 1.019040e-05 1.750147e-03 1.830532e-03 1.703064e-03 1.399870e-02 1.485929e-02 1.642350e-02 
    58.5                5.543513e-03 4.946930e-03 2.451430e-03 6.652808e-03 6.978357e-03 9.554990e-06 1.514425e-03 1.695436e-03 1.574469e-03 1.296383e-02 1.386732e-02 1.537212e-02 
    59.5                5.249810e-03 4.721653e-03 2.149091e-03 6.494872e-03 6.540475e-03 9.137663e-06 1.337139e-03 1.559749e-03 1.443129e-03 1.221629e-02 1.313164e-02 1.460226e-02 
    60.5                5.067607e-03 4.294570e-03 1.867638e-03 6.177178e-03 6.043411e-03 8.431239e-06 1.162808e-03 1.394594e-03 1.285157e-03 1.129519e-02 1.226542e-02 1.365675e-02 
    61.5                4.593290e-03 3.743943e-03 1.472524e-03 5.742075e-03 5.363132e-03 7.239098e-06 9.171125e-04 1.222305e-03 1.121692e-03 1.003020e-02 1.092364e-02 1.220578e-02 
    62.5                4.238500e-03 3.066472e-03 1.164519e-03 4.973758e-03 4.554084e-03 6.062963e-06 7.210506e-04 1.041318e-03 9.555021e-04 8.490876e-03 9.462296e-03 1.054515e-02 
    63.5                3.466958e-03 2.501141e-03 8.514121e-04 4.134656e-03 3.673499e-03 4.799314e-06 5.273212e-04 8.550077e-04 7.849313e-04 6.854720e-03 7.706649e-03 8.594217e-03 
    64.5                2.853565e-03 2.000494e-03 6.412417e-04 3.383222e-03 2.963072e-03 3.720336e-06 3.947788e-04 6.773417e-04 6.207455e-04 5.512817e-03 6.251140e-03 6.967101e-03 
    65.5                2.268264e-03 1.526010e-03 4.515811e-04 2.704461e-03 2.311320e-03 2.797207e-06 2.781397e-04 5.115602e-04 4.671181e-04 4.292302e-03 4.884926e-03 5.454692e-03 
    66.5                1.817405e-03 1.084581e-03 3.107380e-04 2.073319e-03 1.738475e-03 2.071369e-06 1.913718e-04 3.673354e-04 3.338561e-04 3.221309e-03 3.715316e-03 4.148985e-03 
    67.5                1.333589e-03 6.942019e-04 1.934186e-04 1.446948e-03 1.190638e-03 1.415186e-06 1.192970e-04 2.393730e-04 2.165357e-04 2.199897e-03 2.580067e-03 2.881493e-03 
    68.5                8.970912e-04 3.885864e-04 1.060930e-04 9.239841e-04 7.437965e-04 8.677277e-07 6.564946e-05 1.382676e-04 1.239224e-04 1.368331e-03 1.628237e-03 1.820256e-03 
    69.5                5.490414e-04 1.714550e-04 5.104733e-05 5.095873e-04 4.029068e-04 4.765931e-07 3.187910e-05 6.769461e-05 5.997498e-05 7.378260e-04 9.020934e-04 1.007066e-03 
    70.5                2.750660e-04 4.362502e-05 1.916607e-05 2.162440e-04 1.685198e-04 2.134509e-07 1.205516e-05 2.581424e-05 2.261690e-05 3.068974e-04 3.925815e-04 4.365876e-04 
    71.5                9.986946e-05 5.708144e-06 5.359212e-06 5.838802e-05 4.555185e-05 7.673587e-08 3.440165e-06 6.556571e-06 5.725348e-06 8.270410e-05 1.230913e-04 1.340727e-04 
    72.5                1.754885e-05 1.242787e-07 6.623521e-07 8.095205e-06 6.214796e-06 1.467096e-08 4.477499e-07 9.232260e-07 8.136889e-07 1.123066e-05 1.976293e-05 2.116701e-05 
    73.5                1.358019e-06 0.000000e+00 2.095572e-08 4.070825e-07 2.984785e-07 1.348098e-09 1.749256e-08 3.953956e-08 3.427204e-08 5.370891e-07 1.415406e-06 1.464722e-06 
    74.5                0.000000e+00 0.000000e+00 0.000000e+00 0.000000e+00 0.000000e+00 0.000000e+00 0.000000e+00 0.000000e+00 0.000000e+00 0.000000e+00 0.000000e+00 0.000000e+00 
    75.5                0.000000e+00 0.000000e+00 0.000000e+00 0.000000e+00 0.000000e+00 0.000000e+00 0.000000e+00 0.000000e+00 0.000000e+00 0.000000e+00 0.000000e+00 0.000000e+00 
    76.5                0.000000e+00 0.000000e+00 0.000000e+00 0.000000e+00 0.000000e+00 0.000000e+00 0.000000e+00 0.000000e+00 0.000000e+00 0.000000e+00 0.000000e+00 0.000000e+00 
    77.5                0.000000e+00 0.000000e+00 0.000000e+00 0.000000e+00 0.000000e+00 0.000000e+00 0.000000e+00 0.000000e+00 0.000000e+00 0.000000e+00 0.000000e+00 0.000000e+00 
    78.5                0.000000e+00 0.000000e+00 0.000000e+00 0.000000e+00 0.000000e+00 0.000000e+00 0.000000e+00 0.000000e+00 0.000000e+00 0.000000e+00 0.000000e+00 0.000000e+00 
    79.5                0.000000e+00 0.000000e+00 0.000000e+00 0.000000e+00 0.000000e+00 0.000000e+00 0.000000e+00 0.000000e+00 0.000000e+00 0.000000e+00 0.000000e+00 0.000000e+00 


