# 80 rows of flux data
# 12 columns of flux data
# 
# total cross-sectional flux  2.023943e+00 /m^2/yr
#
#                             +x ram      -x wake      +y port -y starboard    +z zenith     -z nadir        Earth          Sun     anti-Sun      rot (x)      rot (y)      rot (z) 
# average speed (km/s)         23.99        23.99        17.75        22.60        23.82        23.58        23.98        24.29        24.29        23.19        23.91        23.48 
# total flux (#/m2/yr)  6.310351e-01 6.305408e-01 1.229821e-01 3.905775e-01 1.154354e+00 5.107349e-04 6.242390e-01 8.859387e-01 8.856239e-01 1.343370e+00 1.906937e+00 1.458005e+00 
# velocity (km/s)
     0.5                0.000000e+00 0.000000e+00 0.000000e+00 0.000000e+00 0.000000e+00 0.000000e+00 0.000000e+00 0.000000e+00 0.000000e+00 0.000000e+00 0.000000e+00 0.000000e+00 
     1.5                0.000000e+00 0.000000e+00 0.000000e+00 0.000000e+00 0.000000e+00 0.000000e+00 0.000000e+00 0.000000e+00 0.000000e+00 0.000000e+00 0.000000e+00 0.000000e+00 
     2.5                9.164641e-07 9.603429e-07 5.663775e-08 1.209053e-06 5.681260e-06 0.000000e+00 9.538978e-07 7.263207e-07 7.121282e-07 5.865242e-06 6.123723e-06 2.470304e-06 
     3.5                7.479506e-05 7.611446e-05 1.537980e-05 5.626306e-05 1.948352e-04 1.736843e-08 7.570051e-05 5.692014e-05 5.684373e-05 2.157625e-04 2.700512e-04 1.815889e-04 
     4.5                4.102843e-04 4.131114e-04 1.348530e-04 3.421378e-04 9.590127e-04 1.851742e-07 4.105019e-04 3.270331e-04 3.264809e-04 1.138957e-03 1.397610e-03 1.038158e-03 
     5.5                1.314070e-03 1.318345e-03 5.420625e-04 1.102806e-03 2.717885e-03 8.127599e-07 1.311012e-03 1.144254e-03 1.142642e-03 3.431072e-03 4.204399e-03 3.384193e-03 
     6.5                2.597302e-03 2.599320e-03 1.163012e-03 2.178207e-03 5.157535e-03 1.935310e-06 2.584755e-03 2.361042e-03 2.358716e-03 6.681255e-03 8.156824e-03 6.722195e-03 
     7.5                4.605674e-03 4.610133e-03 2.152390e-03 3.935073e-03 9.192984e-03 3.530598e-06 4.585149e-03 4.304917e-03 4.301688e-03 1.202431e-02 1.449234e-02 1.205321e-02 
     8.5                7.175990e-03 7.177183e-03 3.220218e-03 5.870038e-03 1.375792e-02 5.835961e-06 7.137232e-03 6.883251e-03 6.880776e-03 1.796675e-02 2.214528e-02 1.846156e-02 
     9.5                9.465207e-03 9.462654e-03 4.556218e-03 7.824971e-03 1.758233e-02 8.378466e-06 9.404612e-03 9.786712e-03 9.783364e-03 2.351512e-02 2.881528e-02 2.459871e-02 
    10.5                1.148013e-02 1.147576e-02 5.783542e-03 9.599050e-03 2.141672e-02 1.044329e-05 1.139539e-02 1.296991e-02 1.296587e-02 2.893253e-02 3.501735e-02 3.012040e-02 
    11.5                1.343719e-02 1.342418e-02 6.843872e-03 1.097642e-02 2.464119e-02 1.278510e-05 1.332440e-02 1.597427e-02 1.596840e-02 3.345555e-02 4.065707e-02 3.514287e-02 
    12.5                1.466698e-02 1.465459e-02 7.351518e-03 1.190020e-02 2.701398e-02 1.410698e-05 1.453367e-02 1.849850e-02 1.849300e-02 3.652645e-02 4.449063e-02 3.833942e-02 
    13.5                1.644887e-02 1.644193e-02 7.766802e-03 1.308357e-02 3.065053e-02 1.540581e-05 1.629767e-02 2.159175e-02 2.158359e-02 4.075692e-02 5.013031e-02 4.253544e-02 
    14.5                1.818100e-02 1.817006e-02 7.838911e-03 1.389270e-02 3.380974e-02 1.687588e-05 1.800173e-02 2.454761e-02 2.453987e-02 4.406235e-02 5.536739e-02 4.613639e-02 
    15.5                1.981080e-02 1.979677e-02 7.682515e-03 1.460145e-02 3.670083e-02 1.793725e-05 1.960629e-02 2.741540e-02 2.740606e-02 4.688590e-02 6.021966e-02 4.941198e-02 
    16.5                2.124806e-02 2.123499e-02 7.471934e-03 1.518502e-02 3.929760e-02 1.888648e-05 2.102391e-02 2.985676e-02 2.984652e-02 4.936685e-02 6.453221e-02 5.219593e-02 
    17.5                2.253413e-02 2.252178e-02 6.987663e-03 1.564182e-02 4.178027e-02 1.937255e-05 2.228978e-02 3.234902e-02 3.233795e-02 5.142475e-02 6.852303e-02 5.445622e-02 
    18.5                2.364944e-02 2.363059e-02 6.506409e-03 1.589788e-02 4.358730e-02 1.983415e-05 2.338324e-02 3.431340e-02 3.430089e-02 5.277629e-02 7.170540e-02 5.628779e-02 
    19.5                2.436259e-02 2.434725e-02 6.121313e-03 1.604939e-02 4.493523e-02 2.014619e-05 2.408825e-02 3.571275e-02 3.570034e-02 5.375947e-02 7.390487e-02 5.743020e-02 
    20.5                2.498298e-02 2.497069e-02 5.548694e-03 1.602744e-02 4.615352e-02 2.020153e-05 2.469954e-02 3.687432e-02 3.686159e-02 5.439356e-02 7.583722e-02 5.821119e-02 
    21.5                2.591378e-02 2.590121e-02 5.044900e-03 1.632707e-02 4.799979e-02 2.040230e-05 2.561613e-02 3.851452e-02 3.850072e-02 5.580514e-02 7.874745e-02 5.976642e-02 
    22.5                2.666974e-02 2.665316e-02 4.724279e-03 1.639475e-02 4.917303e-02 2.089734e-05 2.635987e-02 3.970270e-02 3.968969e-02 5.665597e-02 8.087496e-02 6.101089e-02 
    23.5                2.694052e-02 2.692334e-02 4.174093e-03 1.620956e-02 4.959394e-02 2.092475e-05 2.662586e-02 4.010472e-02 4.009137e-02 5.650426e-02 8.163689e-02 6.105919e-02 
    24.5                2.706542e-02 2.704865e-02 3.695739e-03 1.596907e-02 4.981820e-02 2.078755e-05 2.674936e-02 4.028319e-02 4.026888e-02 5.622040e-02 8.200988e-02 6.090804e-02 
    25.5                2.701849e-02 2.700009e-02 3.190195e-03 1.556947e-02 4.957796e-02 2.061534e-05 2.670271e-02 4.012694e-02 4.011264e-02 5.540963e-02 8.175028e-02 6.032547e-02 
    26.5                2.644617e-02 2.642512e-02 2.762430e-03 1.494226e-02 4.832269e-02 2.022976e-05 2.613604e-02 3.914152e-02 3.912781e-02 5.362074e-02 7.987200e-02 5.872761e-02 
    27.5                2.572407e-02 2.570510e-02 2.351019e-03 1.431550e-02 4.708304e-02 1.949433e-05 2.542387e-02 3.801041e-02 3.799760e-02 5.186258e-02 7.774662e-02 5.684708e-02 
    28.5                2.493999e-02 2.491996e-02 2.014933e-03 1.364940e-02 4.549585e-02 1.887478e-05 2.465017e-02 3.666837e-02 3.665491e-02 4.981859e-02 7.525752e-02 5.488330e-02 
    29.5                2.382753e-02 2.380815e-02 1.679028e-03 1.283639e-02 4.337581e-02 1.801859e-05 2.355242e-02 3.487075e-02 3.485772e-02 4.722481e-02 7.183700e-02 5.221671e-02 
    30.5                2.257995e-02 2.256087e-02 1.366432e-03 1.197617e-02 4.101737e-02 1.704945e-05 2.232144e-02 3.285699e-02 3.284665e-02 4.439699e-02 6.801072e-02 4.929198e-02 
    31.5                2.112806e-02 2.110788e-02 1.087205e-03 1.103169e-02 3.825930e-02 1.597010e-05 2.088678e-02 3.052272e-02 3.051145e-02 4.118650e-02 6.354817e-02 4.595693e-02 
    32.5                1.947399e-02 1.945344e-02 8.555875e-04 1.001330e-02 3.508621e-02 1.478321e-05 1.925370e-02 2.787127e-02 2.786174e-02 3.759888e-02 5.843987e-02 4.222849e-02 
    33.5                1.757060e-02 1.755063e-02 6.736743e-04 8.924400e-03 3.151678e-02 1.342040e-05 1.737346e-02 2.492229e-02 2.491251e-02 3.365571e-02 5.262476e-02 3.801148e-02 
    34.5                1.564473e-02 1.562549e-02 5.180939e-04 7.854159e-03 2.794945e-02 1.197977e-05 1.547086e-02 2.199040e-02 2.198273e-02 2.974129e-02 4.677197e-02 3.376760e-02 
    35.5                1.369510e-02 1.367799e-02 3.808638e-04 6.801216e-03 2.439305e-02 1.052353e-05 1.354498e-02 1.906447e-02 1.905731e-02 2.586023e-02 4.089356e-02 2.949827e-02 
    36.5                1.182731e-02 1.181161e-02 2.710692e-04 5.799330e-03 2.094730e-02 9.132271e-06 1.169977e-02 1.627295e-02 1.626787e-02 2.212961e-02 3.522282e-02 2.541730e-02 
    37.5                9.989833e-03 9.974579e-03 1.894900e-04 4.845598e-03 1.760397e-02 7.762721e-06 9.882214e-03 1.358725e-02 1.358252e-02 1.854277e-02 2.968509e-02 2.142940e-02 
    38.5                8.212360e-03 8.197638e-03 1.279397e-04 3.920721e-03 1.431417e-02 6.465991e-06 8.124335e-03 1.100278e-02 1.099851e-02 1.503797e-02 2.428519e-02 1.757541e-02 
    39.5                6.467097e-03 6.454053e-03 8.161414e-05 3.035811e-03 1.113127e-02 5.191231e-06 6.398552e-03 8.521576e-03 8.518307e-03 1.166660e-02 1.902085e-02 1.380971e-02 
    40.5                4.852944e-03 4.841818e-03 4.963495e-05 2.236905e-03 8.231189e-03 3.975827e-06 4.801986e-03 6.284744e-03 6.282444e-03 8.609711e-03 1.418463e-02 1.034014e-02 
    41.5                3.465008e-03 3.456562e-03 2.828990e-05 1.573553e-03 5.808522e-03 2.894166e-06 3.429142e-03 4.415046e-03 4.413169e-03 6.064336e-03 1.007843e-02 7.370119e-03 
    42.5                2.359688e-03 2.352972e-03 1.528755e-05 1.048295e-03 3.879517e-03 2.016166e-06 2.335293e-03 2.945605e-03 2.944774e-03 4.044281e-03 6.806717e-03 5.007139e-03 
    43.5                1.467743e-03 1.462606e-03 7.722973e-06 6.272642e-04 2.325871e-03 1.316293e-06 1.452415e-03 1.782863e-03 1.782016e-03 2.422049e-03 4.170293e-03 3.102753e-03 
    44.5                8.004481e-04 7.966692e-04 3.382783e-06 3.261940e-04 1.211548e-03 7.583410e-07 7.916206e-04 9.424447e-04 9.419950e-04 1.260501e-03 2.232398e-03 1.684307e-03 
    45.5                3.600964e-04 3.580152e-04 1.293756e-06 1.354286e-04 5.035851e-04 3.745959e-07 3.560591e-04 4.065804e-04 4.062421e-04 5.237265e-04 9.741959e-04 7.526682e-04 
    46.5                1.176768e-04 1.167606e-04 4.023336e-07 3.980948e-05 1.480814e-04 1.420193e-07 1.162228e-04 1.265951e-04 1.266029e-04 1.540271e-04 3.071344e-04 2.440930e-04 
    47.5                2.683408e-05 2.659320e-05 8.555167e-08 7.812587e-06 2.907537e-05 3.724282e-08 2.649074e-05 2.723586e-05 2.720666e-05 3.025528e-05 6.676801e-05 5.513910e-05 
    48.5                3.423486e-06 3.390845e-06 1.192531e-08 7.141943e-07 2.655778e-06 5.749992e-09 3.381135e-06 3.139373e-06 3.143174e-06 2.770354e-06 7.779002e-06 6.922489e-06 
    49.5                7.848423e-08 7.746065e-08 4.042421e-10 6.547753e-09 2.381863e-08 2.142036e-10 7.726504e-08 6.345386e-08 6.370988e-08 2.537075e-08 1.589435e-07 1.561898e-07 
    50.5                0.000000e+00 0.000000e+00 0.000000e+00 0.000000e+00 0.000000e+00 0.000000e+00 0.000000e+00 0.000000e+00 0.000000e+00 0.000000e+00 0.000000e+00 0.000000e+00 
    51.5                0.000000e+00 0.000000e+00 0.000000e+00 0.000000e+00 0.000000e+00 0.000000e+00 0.000000e+00 0.000000e+00 0.000000e+00 0.000000e+00 0.000000e+00 0.000000e+00 
    52.5                0.000000e+00 0.000000e+00 0.000000e+00 0.000000e+00 0.000000e+00 0.000000e+00 0.000000e+00 0.000000e+00 0.000000e+00 0.000000e+00 0.000000e+00 0.000000e+00 
    53.5                0.000000e+00 0.000000e+00 0.000000e+00 0.000000e+00 0.000000e+00 0.000000e+00 0.000000e+00 0.000000e+00 0.000000e+00 0.000000e+00 0.000000e+00 0.000000e+00 
    54.5                0.000000e+00 0.000000e+00 0.000000e+00 0.000000e+00 0.000000e+00 0.000000e+00 0.000000e+00 0.000000e+00 0.000000e+00 0.000000e+00 0.000000e+00 0.000000e+00 
    55.5                0.000000e+00 0.000000e+00 0.000000e+00 0.000000e+00 0.000000e+00 0.000000e+00 0.000000e+00 0.000000e+00 0.000000e+00 0.000000e+00 0.000000e+00 0.000000e+00 
    56.5                0.000000e+00 0.000000e+00 0.000000e+00 0.000000e+00 0.000000e+00 0.000000e+00 0.000000e+00 0.000000e+00 0.000000e+00 0.000000e+00 0.000000e+00 0.000000e+00 
    57.5                0.000000e+00 0.000000e+00 0.000000e+00 0.000000e+00 0.000000e+00 0.000000e+00 0.000000e+00 0.000000e+00 0.000000e+00 0.000000e+00 0.000000e+00 0.000000e+00 
    58.5                0.000000e+00 0.000000e+00 0.000000e+00 0.000000e+00 0.000000e+00 0.000000e+00 0.000000e+00 0.000000e+00 0.000000e+00 0.000000e+00 0.000000e+00 0.000000e+00 
    59.5                0.000000e+00 0.000000e+00 0.000000e+00 0.000000e+00 0.000000e+00 0.000000e+00 0.000000e+00 0.000000e+00 0.000000e+00 0.000000e+00 0.000000e+00 0.000000e+00 
    60.5                0.000000e+00 0.000000e+00 0.000000e+00 0.000000e+00 0.000000e+00 0.000000e+00 0.000000e+00 0.000000e+00 0.000000e+00 0.000000e+00 0.000000e+00 0.000000e+00 
    61.5                0.000000e+00 0.000000e+00 0.000000e+00 0.000000e+00 0.000000e+00 0.000000e+00 0.000000e+00 0.000000e+00 0.000000e+00 0.000000e+00 0.000000e+00 0.000000e+00 
    62.5                0.000000e+00 0.000000e+00 0.000000e+00 0.000000e+00 0.000000e+00 0.000000e+00 0.000000e+00 0.000000e+00 0.000000e+00 0.000000e+00 0.000000e+00 0.000000e+00 
    63.5                0.000000e+00 0.000000e+00 0.000000e+00 0.000000e+00 0.000000e+00 0.000000e+00 0.000000e+00 0.000000e+00 0.000000e+00 0.000000e+00 0.000000e+00 0.000000e+00 
    64.5                0.000000e+00 0.000000e+00 0.000000e+00 0.000000e+00 0.000000e+00 0.000000e+00 0.000000e+00 0.000000e+00 0.000000e+00 0.000000e+00 0.000000e+00 0.000000e+00 
    65.5                0.000000e+00 0.000000e+00 0.000000e+00 0.000000e+00 0.000000e+00 0.000000e+00 0.000000e+00 0.000000e+00 0.000000e+00 0.000000e+00 0.000000e+00 0.000000e+00 
    66.5                0.000000e+00 0.000000e+00 0.000000e+00 0.000000e+00 0.000000e+00 0.000000e+00 0.000000e+00 0.000000e+00 0.000000e+00 0.000000e+00 0.000000e+00 0.000000e+00 
    67.5                0.000000e+00 0.000000e+00 0.000000e+00 0.000000e+00 0.000000e+00 0.000000e+00 0.000000e+00 0.000000e+00 0.000000e+00 0.000000e+00 0.000000e+00 0.000000e+00 
    68.5                0.000000e+00 0.000000e+00 0.000000e+00 0.000000e+00 0.000000e+00 0.000000e+00 0.000000e+00 0.000000e+00 0.000000e+00 0.000000e+00 0.000000e+00 0.000000e+00 
    69.5                0.000000e+00 0.000000e+00 0.000000e+00 0.000000e+00 0.000000e+00 0.000000e+00 0.000000e+00 0.000000e+00 0.000000e+00 0.000000e+00 0.000000e+00 0.000000e+00 
    70.5                0.000000e+00 0.000000e+00 0.000000e+00 0.000000e+00 0.000000e+00 0.000000e+00 0.000000e+00 0.000000e+00 0.000000e+00 0.000000e+00 0.000000e+00 0.000000e+00 
    71.5                0.000000e+00 0.000000e+00 0.000000e+00 0.000000e+00 0.000000e+00 0.000000e+00 0.000000e+00 0.000000e+00 0.000000e+00 0.000000e+00 0.000000e+00 0.000000e+00 
    72.5                0.000000e+00 0.000000e+00 0.000000e+00 0.000000e+00 0.000000e+00 0.000000e+00 0.000000e+00 0.000000e+00 0.000000e+00 0.000000e+00 0.000000e+00 0.000000e+00 
    73.5                0.000000e+00 0.000000e+00 0.000000e+00 0.000000e+00 0.000000e+00 0.000000e+00 0.000000e+00 0.000000e+00 0.000000e+00 0.000000e+00 0.000000e+00 0.000000e+00 
    74.5                0.000000e+00 0.000000e+00 0.000000e+00 0.000000e+00 0.000000e+00 0.000000e+00 0.000000e+00 0.000000e+00 0.000000e+00 0.000000e+00 0.000000e+00 0.000000e+00 
    75.5                0.000000e+00 0.000000e+00 0.000000e+00 0.000000e+00 0.000000e+00 0.000000e+00 0.000000e+00 0.000000e+00 0.000000e+00 0.000000e+00 0.000000e+00 0.000000e+00 
    76.5                0.000000e+00 0.000000e+00 0.000000e+00 0.000000e+00 0.000000e+00 0.000000e+00 0.000000e+00 0.000000e+00 0.000000e+00 0.000000e+00 0.000000e+00 0.000000e+00 
    77.5                0.000000e+00 0.000000e+00 0.000000e+00 0.000000e+00 0.000000e+00 0.000000e+00 0.000000e+00 0.000000e+00 0.000000e+00 0.000000e+00 0.000000e+00 0.000000e+00 
    78.5                0.000000e+00 0.000000e+00 0.000000e+00 0.000000e+00 0.000000e+00 0.000000e+00 0.000000e+00 0.000000e+00 0.000000e+00 0.000000e+00 0.000000e+00 0.000000e+00 
    79.5                0.000000e+00 0.000000e+00 0.000000e+00 0.000000e+00 0.000000e+00 0.000000e+00 0.000000e+00 0.000000e+00 0.000000e+00 0.000000e+00 0.000000e+00 0.000000e+00 


