# 80 rows of flux data
# 12 columns of flux data
# 
# total cross-sectional flux  1.038173e+00 /m^2/yr
#
#                             +x ram      -x wake      +y port -y starboard    +z zenith     -z nadir        Earth          Sun     anti-Sun      rot (x)      rot (y)      rot (z) 
# average speed (km/s)         37.03        38.32        41.29        34.38        31.70        46.36        37.09        28.07        27.95        34.02        34.15        37.23 
# total flux (#/m2/yr)  2.560821e-01 2.149447e-01 1.739491e-01 3.129239e-01 6.051398e-01 2.220613e-04 1.978628e-01 1.682662e-01 1.673468e-01 8.603935e-01 8.388057e-01 7.518099e-01 
# velocity (km/s)
     0.5                0.000000e+00 0.000000e+00 0.000000e+00 0.000000e+00 0.000000e+00 0.000000e+00 0.000000e+00 0.000000e+00 0.000000e+00 0.000000e+00 0.000000e+00 0.000000e+00 
     1.5                0.000000e+00 0.000000e+00 0.000000e+00 0.000000e+00 0.000000e+00 0.000000e+00 0.000000e+00 0.000000e+00 0.000000e+00 0.000000e+00 0.000000e+00 0.000000e+00 
     2.5                3.218128e-05 1.192851e-04 8.720963e-05 8.898634e-05 1.552677e-04 7.076774e-08 6.243345e-05 8.376253e-05 8.361568e-05 2.599401e-04 2.416867e-04 2.576589e-04 
     3.5                3.657694e-04 4.737199e-04 4.659882e-04 4.195711e-04 7.556849e-04 4.659572e-07 2.971937e-04 4.492199e-04 4.360323e-04 1.290610e-03 1.255421e-03 1.355195e-03 
     4.5                9.585141e-04 8.440365e-04 9.374483e-04 8.834048e-04 1.643959e-03 1.103221e-06 6.135741e-04 9.808972e-04 9.659985e-04 2.727741e-03 2.712660e-03 2.846764e-03 
     5.5                1.612880e-03 1.250874e-03 1.404999e-03 1.431634e-03 2.743346e-03 1.685343e-06 9.695971e-04 1.608074e-03 1.595750e-03 4.395275e-03 4.404328e-03 4.478479e-03 
     6.5                2.274268e-03 1.617856e-03 1.809572e-03 2.077277e-03 4.080316e-03 2.172108e-06 1.354992e-03 2.238625e-03 2.233790e-03 6.277990e-03 6.263049e-03 6.110451e-03 
     7.5                2.834915e-03 1.980476e-03 2.117762e-03 2.736709e-03 5.504790e-03 2.580794e-06 1.728835e-03 2.816810e-03 2.819868e-03 8.168661e-03 8.114136e-03 7.596446e-03 
     8.5                3.344379e-03 2.317013e-03 2.377111e-03 3.368009e-03 6.907219e-03 2.857140e-06 2.064828e-03 3.351687e-03 3.359165e-03 9.974776e-03 9.883461e-03 8.957984e-03 
     9.5                3.763374e-03 2.572450e-03 2.565595e-03 3.961800e-03 8.254970e-03 3.042928e-06 2.371680e-03 3.829198e-03 3.832760e-03 1.166163e-02 1.149006e-02 1.010069e-02 
    10.5                4.093488e-03 2.872039e-03 2.681836e-03 4.539992e-03 9.581925e-03 3.138973e-06 2.656476e-03 4.278586e-03 4.276981e-03 1.325669e-02 1.304314e-02 1.114042e-02 
    11.5                4.459196e-03 3.097298e-03 2.790477e-03 5.192743e-03 1.114473e-02 3.205332e-06 2.946636e-03 4.737740e-03 4.732990e-03 1.509684e-02 1.477187e-02 1.220000e-02 
    12.5                4.723929e-03 3.272558e-03 2.823182e-03 5.677691e-03 1.232974e-02 3.159762e-06 3.170388e-03 5.057552e-03 5.051105e-03 1.644222e-02 1.606419e-02 1.295417e-02 
    13.5                4.887613e-03 3.306449e-03 2.784379e-03 6.040487e-03 1.336478e-02 3.047709e-06 3.258208e-03 5.188467e-03 5.180464e-03 1.752183e-02 1.709260e-02 1.336605e-02 
    14.5                4.792493e-03 3.429755e-03 2.728054e-03 6.250722e-03 1.393617e-02 2.991441e-06 3.314429e-03 5.246726e-03 5.235807e-03 1.810051e-02 1.760739e-02 1.350692e-02 
    15.5                4.946998e-03 3.489605e-03 2.669795e-03 6.663660e-03 1.503660e-02 2.829492e-06 3.458401e-03 5.357571e-03 5.348262e-03 1.925810e-02 1.868449e-02 1.395371e-02 
    16.5                4.903062e-03 3.540124e-03 2.606947e-03 6.774910e-03 1.531748e-02 2.776777e-06 3.488263e-03 5.373249e-03 5.364584e-03 1.952009e-02 1.891750e-02 1.399445e-02 
    17.5                4.917975e-03 3.552163e-03 2.547729e-03 6.936340e-03 1.575255e-02 2.632710e-06 3.538430e-03 5.338856e-03 5.329558e-03 1.994032e-02 1.929583e-02 1.409815e-02 
    18.5                4.885219e-03 3.612061e-03 2.466809e-03 7.099482e-03 1.621543e-02 2.477589e-06 3.589407e-03 5.298499e-03 5.288887e-03 2.037410e-02 1.969445e-02 1.418357e-02 
    19.5                4.841133e-03 3.592249e-03 2.383799e-03 7.154706e-03 1.632282e-02 2.278802e-06 3.632354e-03 5.182908e-03 5.174149e-03 2.043786e-02 1.969868e-02 1.410765e-02 
    20.5                4.764372e-03 3.539090e-03 2.250589e-03 7.056934e-03 1.612871e-02 2.109911e-06 3.580367e-03 4.995773e-03 4.987387e-03 2.010062e-02 1.941134e-02 1.382317e-02 
    21.5                4.615544e-03 3.586030e-03 2.182624e-03 7.102922e-03 1.623607e-02 1.991866e-06 3.590163e-03 4.856138e-03 4.848298e-03 2.015914e-02 1.941159e-02 1.372558e-02 
    22.5                4.679155e-03 3.511541e-03 2.113712e-03 7.204461e-03 1.648886e-02 1.857626e-06 3.643016e-03 4.732128e-03 4.725292e-03 2.038508e-02 1.959769e-02 1.374595e-02 
    23.5                4.460026e-03 3.369397e-03 1.968264e-03 6.824681e-03 1.561259e-02 1.697811e-06 3.461088e-03 4.430677e-03 4.424589e-03 1.927633e-02 1.856623e-02 1.304144e-02 
    24.5                4.202689e-03 3.288114e-03 1.858355e-03 6.554930e-03 1.496397e-02 1.540988e-06 3.353283e-03 4.165197e-03 4.158731e-03 1.846057e-02 1.775173e-02 1.247625e-02 
    25.5                4.109790e-03 3.202169e-03 1.764887e-03 6.400576e-03 1.462031e-02 1.408150e-06 3.282911e-03 3.938089e-03 3.932332e-03 1.799709e-02 1.730752e-02 1.213961e-02 
    26.5                3.934466e-03 3.173840e-03 1.708808e-03 6.204996e-03 1.407751e-02 1.331709e-06 3.231837e-03 3.730214e-03 3.724745e-03 1.736300e-02 1.667338e-02 1.178142e-02 
    27.5                3.870341e-03 3.047551e-03 1.627032e-03 5.998919e-03 1.351637e-02 1.229310e-06 3.174468e-03 3.523758e-03 3.518772e-03 1.668488e-02 1.602130e-02 1.140544e-02 
    28.5                3.692002e-03 2.978718e-03 1.532237e-03 5.765819e-03 1.292365e-02 1.087100e-06 3.079690e-03 3.261391e-03 3.257250e-03 1.594547e-02 1.531861e-02 1.095475e-02 
    29.5                3.551544e-03 2.762321e-03 1.424670e-03 5.470851e-03 1.223174e-02 9.088961e-07 2.939318e-03 2.954140e-03 2.950618e-03 1.507387e-02 1.447061e-02 1.035712e-02 
    30.5                3.288199e-03 2.690648e-03 1.300872e-03 5.209908e-03 1.165607e-02 7.553955e-07 2.793506e-03 2.734537e-03 2.731405e-03 1.431532e-02 1.374533e-02 9.789664e-03 
    31.5                3.177476e-03 2.681879e-03 1.261840e-03 5.089299e-03 1.129340e-02 6.690205e-07 2.777478e-03 2.569135e-03 2.566729e-03 1.388804e-02 1.332243e-02 9.574253e-03 
    32.5                3.091225e-03 2.574601e-03 1.228837e-03 4.832366e-03 1.060674e-02 5.996388e-07 2.681298e-03 2.358154e-03 2.355632e-03 1.310098e-02 1.257593e-02 9.195145e-03 
    33.5                2.998610e-03 2.632490e-03 1.233232e-03 4.726899e-03 1.024757e-02 5.006271e-07 2.678006e-03 2.177818e-03 2.174999e-03 1.271974e-02 1.221738e-02 9.089318e-03 
    34.5                3.054847e-03 2.632754e-03 1.225055e-03 4.790416e-03 1.031230e-02 4.305002e-07 2.741970e-03 2.090730e-03 2.088974e-03 1.280268e-02 1.228925e-02 9.179457e-03 
    35.5                2.939177e-03 2.541401e-03 1.210376e-03 4.508449e-03 9.492816e-03 4.174530e-07 2.643869e-03 1.954813e-03 1.953551e-03 1.190170e-02 1.143600e-02 8.783912e-03 
    36.5                2.844429e-03 2.592300e-03 1.219662e-03 4.455171e-03 9.255879e-03 3.554386e-07 2.653253e-03 1.824129e-03 1.822958e-03 1.166593e-02 1.119504e-02 8.718987e-03 
    37.5                2.964719e-03 2.669362e-03 1.246896e-03 4.545820e-03 9.349566e-03 3.066498e-07 2.733894e-03 1.766035e-03 1.765199e-03 1.182248e-02 1.139435e-02 8.969146e-03 
    38.5                2.879305e-03 2.867295e-03 1.334532e-03 4.561900e-03 9.131720e-03 3.571444e-07 2.814757e-03 1.694691e-03 1.693722e-03 1.171415e-02 1.126894e-02 9.134134e-03 
    39.5                3.105657e-03 2.759289e-03 1.411952e-03 4.621959e-03 9.056003e-03 3.481650e-07 2.909151e-03 1.643785e-03 1.642953e-03 1.174293e-02 1.127950e-02 9.336968e-03 
    40.5                3.050345e-03 2.844394e-03 1.399175e-03 4.557481e-03 8.879751e-03 2.532325e-07 2.885633e-03 1.575835e-03 1.575302e-03 1.153310e-02 1.114899e-02 9.306379e-03 
    41.5                3.085257e-03 3.147856e-03 1.591268e-03 4.698786e-03 8.917006e-03 4.800240e-07 3.045115e-03 1.558603e-03 1.556296e-03 1.180677e-02 1.140090e-02 9.829760e-03 
    42.5                3.366935e-03 3.055685e-03 1.763881e-03 4.719021e-03 8.688950e-03 5.828124e-07 3.135111e-03 1.553033e-03 1.549360e-03 1.176274e-02 1.135577e-02 1.013319e-02 
    43.5                3.272051e-03 3.233435e-03 1.806153e-03 4.587987e-03 8.282114e-03 6.463921e-07 3.092278e-03 1.507197e-03 1.502750e-03 1.137391e-02 1.109346e-02 1.012575e-02 
    44.5                3.430628e-03 3.552167e-03 2.014006e-03 4.953071e-03 8.622110e-03 7.037644e-07 3.416562e-03 1.554423e-03 1.551077e-03 1.207409e-02 1.169840e-02 1.095575e-02 
    45.5                3.776982e-03 3.535771e-03 2.093216e-03 5.089215e-03 8.646123e-03 7.138240e-07 3.560189e-03 1.556659e-03 1.554339e-03 1.224911e-02 1.195486e-02 1.137994e-02 
    46.5                3.696601e-03 3.636254e-03 2.224631e-03 5.007701e-03 8.428181e-03 8.301269e-07 3.537851e-03 1.523652e-03 1.518636e-03 1.211852e-02 1.181629e-02 1.143777e-02 
    47.5                3.852335e-03 3.889436e-03 2.505592e-03 5.066849e-03 8.374857e-03 1.645092e-06 3.627620e-03 1.551588e-03 1.542814e-03 1.236654e-02 1.211476e-02 1.202668e-02 
    48.5                3.953240e-03 4.263206e-03 2.824177e-03 5.271038e-03 8.350215e-03 1.971615e-06 3.864021e-03 1.602975e-03 1.592399e-03 1.277779e-02 1.247925e-02 1.280933e-02 
    49.5                4.383117e-03 4.685128e-03 3.150506e-03 5.627687e-03 8.621592e-03 2.499585e-06 4.199459e-03 1.666645e-03 1.655202e-03 1.353738e-02 1.336279e-02 1.401256e-02 
    50.5                4.669397e-03 5.398849e-03 3.729456e-03 6.104090e-03 8.942941e-03 3.852226e-06 4.657744e-03 1.759585e-03 1.744374e-03 1.465683e-02 1.442967e-02 1.563364e-02 
    51.5                5.366143e-03 5.995114e-03 4.793935e-03 6.517882e-03 9.275793e-03 6.861705e-06 5.079364e-03 1.862260e-03 1.833903e-03 1.616845e-02 1.577644e-02 1.781378e-02 
    52.5                6.094225e-03 6.025316e-03 5.512971e-03 6.494984e-03 9.147394e-03 8.904714e-06 5.132636e-03 1.925671e-03 1.886229e-03 1.668145e-02 1.636804e-02 1.894432e-02 
    53.5                6.234262e-03 6.142710e-03 5.956846e-03 6.267297e-03 8.790199e-03 1.030444e-05 5.002440e-03 1.954754e-03 1.907284e-03 1.661881e-02 1.638033e-02 1.931340e-02 
    54.5                6.369697e-03 5.784535e-03 6.088211e-03 5.953551e-03 8.350830e-03 1.009740e-05 4.785076e-03 1.941864e-03 1.891279e-03 1.614421e-02 1.591148e-02 1.899669e-02 
    55.5                6.312932e-03 5.846988e-03 6.073156e-03 5.704572e-03 7.984105e-03 1.035731e-05 4.604831e-03 1.922742e-03 1.871420e-03 1.566083e-02 1.567471e-02 1.877726e-02 
    56.5                6.186034e-03 5.571069e-03 6.033101e-03 5.513033e-03 7.613097e-03 1.015714e-05 4.484627e-03 1.884389e-03 1.834025e-03 1.519220e-02 1.510077e-02 1.828396e-02 
    57.5                5.949581e-03 5.090452e-03 5.696880e-03 5.068021e-03 6.929824e-03 9.580659e-06 4.146390e-03 1.792920e-03 1.745939e-03 1.404750e-02 1.404000e-02 1.712017e-02 
    58.5                5.488098e-03 4.895981e-03 5.486983e-03 4.655841e-03 6.275824e-03 9.815993e-06 3.842747e-03 1.665999e-03 1.620599e-03 1.307384e-02 1.305911e-02 1.610903e-02 
    59.5                5.198659e-03 4.688995e-03 5.352813e-03 4.369352e-03 5.788560e-03 1.018808e-05 3.637451e-03 1.534740e-03 1.490495e-03 1.238335e-02 1.233632e-02 1.538311e-02 
    60.5                5.032287e-03 4.277343e-03 5.199368e-03 3.936693e-03 5.256829e-03 1.032880e-05 3.292185e-03 1.378265e-03 1.333660e-03 1.152192e-02 1.150190e-02 1.447217e-02 
    61.5                4.570492e-03 3.747513e-03 4.905587e-03 3.374395e-03 4.538665e-03 9.805912e-06 2.846580e-03 1.213297e-03 1.169244e-03 1.029023e-02 1.020491e-02 1.302414e-02 
    62.5                4.233936e-03 3.071315e-03 4.332097e-03 2.783807e-03 3.783996e-03 9.011134e-06 2.358414e-03 1.039947e-03 1.000440e-03 8.771638e-03 8.835019e-03 1.130717e-02 
    63.5                3.467859e-03 2.513580e-03 3.609511e-03 2.220272e-03 2.998996e-03 7.656882e-06 1.895046e-03 8.581865e-04 8.252635e-04 7.118427e-03 7.188842e-03 9.260118e-03 
    64.5                2.858362e-03 2.013967e-03 2.977322e-03 1.757009e-03 2.383638e-03 6.323404e-06 1.505402e-03 6.825856e-04 6.554163e-04 5.747310e-03 5.821305e-03 7.532751e-03 
    65.5                2.275036e-03 1.544907e-03 2.429947e-03 1.313312e-03 1.815650e-03 5.182039e-06 1.132489e-03 5.178276e-04 4.951143e-04 4.498283e-03 4.539494e-03 5.930072e-03 
    66.5                1.829028e-03 1.103155e-03 1.907173e-03 9.506334e-04 1.335570e-03 4.200139e-06 8.247134e-04 3.730900e-04 3.549193e-04 3.402072e-03 3.453717e-03 4.538470e-03 
    67.5                1.347586e-03 7.141796e-04 1.383493e-03 6.035284e-04 8.909715e-04 3.155479e-06 5.263770e-04 2.441553e-04 2.305294e-04 2.341576e-03 2.404686e-03 3.173051e-03 
    68.5                9.106665e-04 4.042455e-04 9.259086e-04 3.238041e-04 5.393681e-04 2.000702e-06 2.833482e-04 1.410530e-04 1.313219e-04 1.456510e-03 1.519422e-03 2.008041e-03 
    69.5                5.582348e-04 1.790798e-04 5.278625e-04 1.446420e-04 2.846881e-04 1.006232e-06 1.266537e-04 6.875850e-05 6.295129e-05 7.768647e-04 8.415616e-04 1.101910e-03 
    70.5                2.803264e-04 4.524951e-05 2.291646e-04 4.908169e-05 1.164976e-04 3.844246e-07 4.284214e-05 2.611037e-05 2.351246e-05 3.186839e-04 3.663002e-04 4.723844e-04 
    71.5                1.015533e-04 5.850261e-06 6.235052e-05 1.238646e-05 3.143878e-05 1.173032e-07 1.081751e-05 6.610807e-06 5.917199e-06 8.532343e-05 1.166992e-04 1.428064e-04 
    72.5                1.785422e-05 1.231723e-07 8.788227e-06 1.426835e-06 4.192263e-06 2.045147e-08 1.263960e-06 9.337167e-07 8.378037e-07 1.151949e-05 1.901177e-05 2.231357e-05 
    73.5                1.411928e-06 0.000000e+00 4.523751e-07 4.903249e-08 1.890358e-07 2.044163e-09 4.662454e-08 4.055454e-08 3.564774e-08 5.509154e-07 1.435301e-06 1.547123e-06 
    74.5                0.000000e+00 0.000000e+00 0.000000e+00 0.000000e+00 0.000000e+00 0.000000e+00 0.000000e+00 0.000000e+00 0.000000e+00 0.000000e+00 0.000000e+00 0.000000e+00 
    75.5                0.000000e+00 0.000000e+00 0.000000e+00 0.000000e+00 0.000000e+00 0.000000e+00 0.000000e+00 0.000000e+00 0.000000e+00 0.000000e+00 0.000000e+00 0.000000e+00 
    76.5                0.000000e+00 0.000000e+00 0.000000e+00 0.000000e+00 0.000000e+00 0.000000e+00 0.000000e+00 0.000000e+00 0.000000e+00 0.000000e+00 0.000000e+00 0.000000e+00 
    77.5                0.000000e+00 0.000000e+00 0.000000e+00 0.000000e+00 0.000000e+00 0.000000e+00 0.000000e+00 0.000000e+00 0.000000e+00 0.000000e+00 0.000000e+00 0.000000e+00 
    78.5                0.000000e+00 0.000000e+00 0.000000e+00 0.000000e+00 0.000000e+00 0.000000e+00 0.000000e+00 0.000000e+00 0.000000e+00 0.000000e+00 0.000000e+00 0.000000e+00 
    79.5                0.000000e+00 0.000000e+00 0.000000e+00 0.000000e+00 0.000000e+00 0.000000e+00 0.000000e+00 0.000000e+00 0.000000e+00 0.000000e+00 0.000000e+00 0.000000e+00 


