# 80 rows of flux data
# 12 columns of flux data
# 
# total cross-sectional flux  2.184490e+00 /m^2/yr
#
#                             +x ram      -x wake      +y port -y starboard    +z zenith     -z nadir        Earth          Sun     anti-Sun      rot (x)      rot (y)      rot (z) 
# average speed (km/s)         23.83        24.65        24.76        17.47        23.73        23.57        24.50        24.65        24.66        23.57        24.08        24.13 
# total flux (#/m2/yr)  6.215011e-01 7.284807e-01 9.228000e-01 1.245010e-01 8.980101e-01 7.942529e-04 1.237336e+00 9.474918e-01 9.603504e-01 1.461726e+00 1.790583e+00 1.892024e+00 
# velocity (km/s)
     0.5                0.000000e+00 0.000000e+00 0.000000e+00 0.000000e+00 0.000000e+00 0.000000e+00 0.000000e+00 0.000000e+00 0.000000e+00 0.000000e+00 0.000000e+00 0.000000e+00 
     1.5                0.000000e+00 0.000000e+00 0.000000e+00 0.000000e+00 0.000000e+00 0.000000e+00 0.000000e+00 0.000000e+00 0.000000e+00 0.000000e+00 0.000000e+00 0.000000e+00 
     2.5                5.474440e-06 0.000000e+00 8.695052e-07 9.521646e-07 2.334903e-06 1.384027e-09 1.856531e-06 2.921272e-07 1.597987e-06 3.249661e-06 6.127474e-06 5.905560e-06 
     3.5                1.290690e-04 3.496278e-06 6.183314e-05 2.568143e-05 8.682791e-05 6.078411e-08 9.563464e-05 2.730286e-05 5.625787e-05 1.330992e-04 1.735652e-04 1.739127e-04 
     4.5                5.708577e-04 1.337186e-04 3.877858e-04 1.416375e-04 4.892444e-04 3.936261e-07 5.690960e-04 1.923724e-04 2.934186e-04 7.869465e-04 9.440025e-04 9.713691e-04 
     5.5                1.521746e-03 6.131734e-04 1.311250e-03 4.969208e-04 1.630431e-03 1.321268e-06 1.904304e-03 7.781265e-04 9.721481e-04 2.681353e-03 2.972787e-03 3.098178e-03 
     6.5                2.839900e-03 2.012773e-03 2.934142e-03 1.155401e-03 3.613086e-03 3.179085e-06 4.238973e-03 1.970061e-03 2.216420e-03 6.059344e-03 6.694002e-03 7.032546e-03 
     7.5                5.010442e-03 3.706517e-03 5.143581e-03 2.152053e-03 6.487686e-03 5.829183e-06 7.466515e-03 3.813507e-03 4.023676e-03 1.085553e-02 1.202222e-02 1.258648e-02 
     8.5                7.457145e-03 6.208575e-03 8.358418e-03 3.264616e-03 1.027877e-02 9.181407e-06 1.203547e-02 6.420688e-03 6.502174e-03 1.724320e-02 1.892088e-02 1.986582e-02 
     9.5                9.462192e-03 9.458295e-03 1.166007e-02 4.530378e-03 1.432980e-02 1.286912e-05 1.676186e-02 9.532151e-03 9.529051e-03 2.404122e-02 2.628465e-02 2.758682e-02 
    10.5                1.147779e-02 1.273994e-02 1.426635e-02 6.127207e-03 1.812466e-02 1.700221e-05 2.069869e-02 1.296853e-02 1.304566e-02 3.044307e-02 3.348253e-02 3.507069e-02 
    11.5                1.316854e-02 1.495335e-02 1.663651e-02 7.389303e-03 2.148775e-02 1.940977e-05 2.422513e-02 1.633630e-02 1.652526e-02 3.591959e-02 3.921018e-02 4.099766e-02 
    12.5                1.442419e-02 1.710926e-02 1.853593e-02 8.108404e-03 2.393264e-02 2.114689e-05 2.690170e-02 1.937336e-02 1.958733e-02 3.975577e-02 4.384031e-02 4.573057e-02 
    13.5                1.638854e-02 1.839325e-02 2.068448e-02 8.483255e-03 2.614529e-02 2.310936e-05 2.975899e-02 2.233402e-02 2.254931e-02 4.331095e-02 4.819618e-02 5.026749e-02 
    14.5                1.810558e-02 2.006951e-02 2.343452e-02 8.443724e-03 2.838272e-02 2.507518e-05 3.326566e-02 2.545418e-02 2.571041e-02 4.697646e-02 5.271366e-02 5.509102e-02 
    15.5                1.966997e-02 2.181473e-02 2.615612e-02 8.052595e-03 3.021117e-02 2.688364e-05 3.660738e-02 2.842928e-02 2.871561e-02 4.996189e-02 5.686169e-02 5.956235e-02 
    16.5                2.108368e-02 2.368840e-02 2.862500e-02 7.783250e-03 3.195380e-02 2.873399e-05 3.971756e-02 3.123489e-02 3.154203e-02 5.281144e-02 6.091507e-02 6.391707e-02 
    17.5                2.245116e-02 2.503410e-02 3.086717e-02 7.255156e-03 3.322815e-02 3.015756e-05 4.241426e-02 3.373533e-02 3.406315e-02 5.487432e-02 6.412879e-02 6.742698e-02 
    18.5                2.343770e-02 2.627220e-02 3.301264e-02 6.546043e-03 3.425203e-02 3.102158e-05 4.493844e-02 3.593533e-02 3.628434e-02 5.650859e-02 6.676958e-02 7.033879e-02 
    19.5                2.417793e-02 2.746216e-02 3.460659e-02 6.052793e-03 3.504067e-02 3.197316e-05 4.681922e-02 3.770309e-02 3.807357e-02 5.775003e-02 6.899131e-02 7.276278e-02 
    20.5                2.484915e-02 2.807405e-02 3.582345e-02 5.465717e-03 3.543579e-02 3.230793e-05 4.817306e-02 3.891467e-02 3.931085e-02 5.827902e-02 7.037085e-02 7.429754e-02 
    21.5                2.586336e-02 2.853088e-02 3.722738e-02 4.881577e-03 3.598769e-02 3.269549e-05 4.980713e-02 4.022946e-02 4.066135e-02 5.907738e-02 7.200650e-02 7.612022e-02 
    22.5                2.649326e-02 2.943901e-02 3.875618e-02 4.462667e-03 3.682968e-02 3.317335e-05 5.162113e-02 4.159856e-02 4.206756e-02 6.031872e-02 7.394207e-02 7.823635e-02 
    23.5                2.673572e-02 3.021251e-02 3.971416e-02 3.906432e-03 3.704755e-02 3.334770e-05 5.267063e-02 4.236676e-02 4.286745e-02 6.055166e-02 7.495841e-02 7.937385e-02 
    24.5                2.686141e-02 3.037070e-02 4.016796e-02 3.427058e-03 3.694240e-02 3.304467e-05 5.309371e-02 4.256920e-02 4.310227e-02 6.021633e-02 7.512856e-02 7.960020e-02 
    25.5                2.673566e-02 3.041691e-02 4.042402e-02 2.941616e-03 3.666703e-02 3.255276e-05 5.326354e-02 4.247638e-02 4.303886e-02 5.958504e-02 7.486998e-02 7.938109e-02 
    26.5                2.605788e-02 3.027578e-02 4.008561e-02 2.520719e-03 3.597050e-02 3.164361e-05 5.268060e-02 4.181355e-02 4.238847e-02 5.826526e-02 7.367997e-02 7.815583e-02 
    27.5                2.539031e-02 2.964446e-02 3.920199e-02 2.138934e-03 3.485727e-02 3.065476e-05 5.140982e-02 4.068160e-02 4.126140e-02 5.630135e-02 7.178638e-02 7.615948e-02 
    28.5                2.453094e-02 2.868317e-02 3.816452e-02 1.819219e-03 3.368177e-02 2.927324e-05 4.996154e-02 3.926335e-02 3.984224e-02 5.423619e-02 6.939591e-02 7.365872e-02 
    29.5                2.338791e-02 2.778699e-02 3.680051e-02 1.510064e-03 3.224196e-02 2.789561e-05 4.809945e-02 3.759643e-02 3.816996e-02 5.177719e-02 6.663413e-02 7.074413e-02 
    30.5                2.211364e-02 2.650720e-02 3.505548e-02 1.248916e-03 3.053518e-02 2.626919e-05 4.576113e-02 3.555519e-02 3.611243e-02 4.889014e-02 6.324144e-02 6.715780e-02 
    31.5                2.062493e-02 2.509108e-02 3.305988e-02 1.000783e-03 2.862665e-02 2.453289e-05 4.310222e-02 3.325063e-02 3.378452e-02 4.570303e-02 5.940681e-02 6.310466e-02 
    32.5                1.891107e-02 2.346403e-02 3.072737e-02 8.006444e-04 2.648517e-02 2.258084e-05 4.002600e-02 3.062773e-02 3.113079e-02 4.216808e-02 5.503121e-02 5.847258e-02 
    33.5                1.698539e-02 2.165363e-02 2.803652e-02 6.347765e-04 2.407555e-02 2.051515e-05 3.649634e-02 2.771500e-02 2.817686e-02 3.824452e-02 5.012793e-02 5.327024e-02 
    34.5                1.506009e-02 1.955183e-02 2.512987e-02 4.981601e-04 2.151407e-02 1.831166e-05 3.269682e-02 2.463595e-02 2.505176e-02 3.410263e-02 4.486783e-02 4.768664e-02 
    35.5                1.314339e-02 1.741600e-02 2.219128e-02 3.801965e-04 1.894484e-02 1.611561e-05 2.886041e-02 2.156957e-02 2.193907e-02 2.996346e-02 3.957974e-02 4.206993e-02 
    36.5                1.128465e-02 1.525435e-02 1.930198e-02 2.786688e-04 1.643038e-02 1.394653e-05 2.509364e-02 1.857292e-02 1.889334e-02 2.593070e-02 3.435680e-02 3.652586e-02 
    37.5                9.482119e-03 1.318651e-02 1.648918e-02 2.012405e-04 1.400367e-02 1.187665e-05 2.143123e-02 1.571055e-02 1.598474e-02 2.205637e-02 2.932407e-02 3.117829e-02 
    38.5                7.708580e-03 1.115885e-02 1.374601e-02 1.399234e-04 1.164941e-02 9.864317e-06 1.786274e-02 1.295701e-02 1.318344e-02 1.831509e-02 2.440368e-02 2.595156e-02 
    39.5                5.992521e-03 9.217296e-03 1.106554e-02 9.398331e-05 9.361288e-03 7.945596e-06 1.437862e-02 1.032773e-02 1.050614e-02 1.469443e-02 1.965159e-02 2.089805e-02 
    40.5                4.429691e-03 7.304310e-03 8.512714e-03 6.030421e-05 7.191358e-03 6.137974e-06 1.106169e-02 7.869960e-03 8.004015e-03 1.127194e-02 1.514037e-02 1.609932e-02 
    41.5                3.125281e-03 5.524587e-03 6.237239e-03 3.685198e-05 5.263020e-03 4.543272e-06 8.105508e-03 5.721384e-03 5.816064e-03 8.238796e-03 1.113461e-02 1.183639e-02 
    42.5                2.086363e-03 3.967933e-03 4.356263e-03 2.140081e-05 3.672321e-03 3.187253e-06 5.662008e-03 3.955871e-03 4.020135e-03 5.742216e-03 7.785990e-03 8.276235e-03 
    43.5                1.249719e-03 2.728879e-03 2.851250e-03 1.168308e-05 2.401713e-03 2.100789e-06 3.706699e-03 2.565373e-03 2.605172e-03 3.751982e-03 5.108780e-03 5.429509e-03 
    44.5                6.502013e-04 1.731539e-03 1.676228e-03 5.958827e-06 1.411134e-03 1.274819e-06 2.179790e-03 1.506254e-03 1.527010e-03 2.203035e-03 3.039897e-03 3.227483e-03 
    45.5                2.698223e-04 9.661192e-04 8.485670e-04 2.666411e-06 7.140098e-04 6.739697e-07 1.103888e-03 7.648708e-04 7.735495e-04 1.114181e-03 1.564837e-03 1.659098e-03 
    46.5                7.919839e-05 4.508946e-04 3.426604e-04 1.034647e-06 2.882172e-04 3.036023e-07 4.459377e-04 3.162870e-04 3.188753e-04 4.497067e-04 6.587820e-04 6.960818e-04 
    47.5                1.551374e-05 1.550481e-04 1.005520e-04 3.207423e-07 8.455929e-05 1.044588e-07 1.309246e-04 9.722810e-05 9.729784e-05 1.319651e-04 2.065471e-04 2.171358e-04 
    48.5                1.405243e-06 3.737058e-05 2.020214e-05 6.992613e-08 1.698487e-05 2.605931e-08 2.632194e-05 2.087126e-05 2.075404e-05 2.651716e-05 4.541871e-05 4.743294e-05 
    49.5                1.245175e-08 5.181915e-06 2.156819e-06 9.686110e-09 1.813181e-06 3.835479e-09 2.813810e-06 2.565948e-06 2.523755e-06 2.834409e-06 5.762467e-06 5.950094e-06 
    50.5                0.000000e+00 1.498905e-07 4.040114e-08 3.447650e-10 3.401166e-08 1.402092e-10 5.296840e-08 6.677042e-08 6.377753e-08 5.336907e-08 1.558847e-07 1.582039e-07 
    51.5                0.000000e+00 0.000000e+00 0.000000e+00 0.000000e+00 0.000000e+00 0.000000e+00 0.000000e+00 0.000000e+00 0.000000e+00 0.000000e+00 0.000000e+00 0.000000e+00 
    52.5                0.000000e+00 0.000000e+00 0.000000e+00 0.000000e+00 0.000000e+00 0.000000e+00 0.000000e+00 0.000000e+00 0.000000e+00 0.000000e+00 0.000000e+00 0.000000e+00 
    53.5                0.000000e+00 0.000000e+00 0.000000e+00 0.000000e+00 0.000000e+00 0.000000e+00 0.000000e+00 0.000000e+00 0.000000e+00 0.000000e+00 0.000000e+00 0.000000e+00 
    54.5                0.000000e+00 0.000000e+00 0.000000e+00 0.000000e+00 0.000000e+00 0.000000e+00 0.000000e+00 0.000000e+00 0.000000e+00 0.000000e+00 0.000000e+00 0.000000e+00 
    55.5                0.000000e+00 0.000000e+00 0.000000e+00 0.000000e+00 0.000000e+00 0.000000e+00 0.000000e+00 0.000000e+00 0.000000e+00 0.000000e+00 0.000000e+00 0.000000e+00 
    56.5                0.000000e+00 0.000000e+00 0.000000e+00 0.000000e+00 0.000000e+00 0.000000e+00 0.000000e+00 0.000000e+00 0.000000e+00 0.000000e+00 0.000000e+00 0.000000e+00 
    57.5                0.000000e+00 0.000000e+00 0.000000e+00 0.000000e+00 0.000000e+00 0.000000e+00 0.000000e+00 0.000000e+00 0.000000e+00 0.000000e+00 0.000000e+00 0.000000e+00 
    58.5                0.000000e+00 0.000000e+00 0.000000e+00 0.000000e+00 0.000000e+00 0.000000e+00 0.000000e+00 0.000000e+00 0.000000e+00 0.000000e+00 0.000000e+00 0.000000e+00 
    59.5                0.000000e+00 0.000000e+00 0.000000e+00 0.000000e+00 0.000000e+00 0.000000e+00 0.000000e+00 0.000000e+00 0.000000e+00 0.000000e+00 0.000000e+00 0.000000e+00 
    60.5                0.000000e+00 0.000000e+00 0.000000e+00 0.000000e+00 0.000000e+00 0.000000e+00 0.000000e+00 0.000000e+00 0.000000e+00 0.000000e+00 0.000000e+00 0.000000e+00 
    61.5                0.000000e+00 0.000000e+00 0.000000e+00 0.000000e+00 0.000000e+00 0.000000e+00 0.000000e+00 0.000000e+00 0.000000e+00 0.000000e+00 0.000000e+00 0.000000e+00 
    62.5                0.000000e+00 0.000000e+00 0.000000e+00 0.000000e+00 0.000000e+00 0.000000e+00 0.000000e+00 0.000000e+00 0.000000e+00 0.000000e+00 0.000000e+00 0.000000e+00 
    63.5                0.000000e+00 0.000000e+00 0.000000e+00 0.000000e+00 0.000000e+00 0.000000e+00 0.000000e+00 0.000000e+00 0.000000e+00 0.000000e+00 0.000000e+00 0.000000e+00 
    64.5                0.000000e+00 0.000000e+00 0.000000e+00 0.000000e+00 0.000000e+00 0.000000e+00 0.000000e+00 0.000000e+00 0.000000e+00 0.000000e+00 0.000000e+00 0.000000e+00 
    65.5                0.000000e+00 0.000000e+00 0.000000e+00 0.000000e+00 0.000000e+00 0.000000e+00 0.000000e+00 0.000000e+00 0.000000e+00 0.000000e+00 0.000000e+00 0.000000e+00 
    66.5                0.000000e+00 0.000000e+00 0.000000e+00 0.000000e+00 0.000000e+00 0.000000e+00 0.000000e+00 0.000000e+00 0.000000e+00 0.000000e+00 0.000000e+00 0.000000e+00 
    67.5                0.000000e+00 0.000000e+00 0.000000e+00 0.000000e+00 0.000000e+00 0.000000e+00 0.000000e+00 0.000000e+00 0.000000e+00 0.000000e+00 0.000000e+00 0.000000e+00 
    68.5                0.000000e+00 0.000000e+00 0.000000e+00 0.000000e+00 0.000000e+00 0.000000e+00 0.000000e+00 0.000000e+00 0.000000e+00 0.000000e+00 0.000000e+00 0.000000e+00 
    69.5                0.000000e+00 0.000000e+00 0.000000e+00 0.000000e+00 0.000000e+00 0.000000e+00 0.000000e+00 0.000000e+00 0.000000e+00 0.000000e+00 0.000000e+00 0.000000e+00 
    70.5                0.000000e+00 0.000000e+00 0.000000e+00 0.000000e+00 0.000000e+00 0.000000e+00 0.000000e+00 0.000000e+00 0.000000e+00 0.000000e+00 0.000000e+00 0.000000e+00 
    71.5                0.000000e+00 0.000000e+00 0.000000e+00 0.000000e+00 0.000000e+00 0.000000e+00 0.000000e+00 0.000000e+00 0.000000e+00 0.000000e+00 0.000000e+00 0.000000e+00 
    72.5                0.000000e+00 0.000000e+00 0.000000e+00 0.000000e+00 0.000000e+00 0.000000e+00 0.000000e+00 0.000000e+00 0.000000e+00 0.000000e+00 0.000000e+00 0.000000e+00 
    73.5                0.000000e+00 0.000000e+00 0.000000e+00 0.000000e+00 0.000000e+00 0.000000e+00 0.000000e+00 0.000000e+00 0.000000e+00 0.000000e+00 0.000000e+00 0.000000e+00 
    74.5                0.000000e+00 0.000000e+00 0.000000e+00 0.000000e+00 0.000000e+00 0.000000e+00 0.000000e+00 0.000000e+00 0.000000e+00 0.000000e+00 0.000000e+00 0.000000e+00 
    75.5                0.000000e+00 0.000000e+00 0.000000e+00 0.000000e+00 0.000000e+00 0.000000e+00 0.000000e+00 0.000000e+00 0.000000e+00 0.000000e+00 0.000000e+00 0.000000e+00 
    76.5                0.000000e+00 0.000000e+00 0.000000e+00 0.000000e+00 0.000000e+00 0.000000e+00 0.000000e+00 0.000000e+00 0.000000e+00 0.000000e+00 0.000000e+00 0.000000e+00 
    77.5                0.000000e+00 0.000000e+00 0.000000e+00 0.000000e+00 0.000000e+00 0.000000e+00 0.000000e+00 0.000000e+00 0.000000e+00 0.000000e+00 0.000000e+00 0.000000e+00 
    78.5                0.000000e+00 0.000000e+00 0.000000e+00 0.000000e+00 0.000000e+00 0.000000e+00 0.000000e+00 0.000000e+00 0.000000e+00 0.000000e+00 0.000000e+00 0.000000e+00 
    79.5                0.000000e+00 0.000000e+00 0.000000e+00 0.000000e+00 0.000000e+00 0.000000e+00 0.000000e+00 0.000000e+00 0.000000e+00 0.000000e+00 0.000000e+00 0.000000e+00 


