# 80 rows of flux data
# 12 columns of flux data
# 
# total cross-sectional flux  1.024938e+00 /m^2/yr
#
#                             +x ram      -x wake      +y port -y starboard    +z zenith     -z nadir        Earth          Sun     anti-Sun      rot (x)      rot (y)      rot (z) 
# average speed (km/s)         37.42        37.40        36.80        38.06        31.66        17.09        37.47        27.82        27.82        33.73        33.74        37.39 
# total flux (#/m2/yr)  2.311720e-01 2.319571e-01 2.525390e-01 2.121742e-01 6.340540e-01 5.592181e-05 2.308455e-01 1.664244e-01 1.664411e-01 8.506641e-01 8.495285e-01 7.287168e-01 
# velocity (km/s)
     0.5                0.000000e+00 0.000000e+00 0.000000e+00 0.000000e+00 0.000000e+00 0.000000e+00 0.000000e+00 0.000000e+00 0.000000e+00 0.000000e+00 0.000000e+00 0.000000e+00 
     1.5                0.000000e+00 0.000000e+00 0.000000e+00 0.000000e+00 0.000000e+00 0.000000e+00 0.000000e+00 0.000000e+00 0.000000e+00 0.000000e+00 0.000000e+00 0.000000e+00 
     2.5                8.982254e-05 8.832666e-05 3.455836e-05 1.187207e-04 1.554712e-04 5.432149e-08 8.937776e-05 8.409849e-05 8.424445e-05 2.425520e-04 2.607401e-04 2.605302e-04 
     3.5                4.478678e-04 4.458746e-04 3.705974e-04 4.722926e-04 7.497577e-04 4.213587e-07 4.465678e-04 4.413947e-04 4.412418e-04 1.251646e-03 1.284910e-03 1.363577e-03 
     4.5                9.219912e-04 9.239153e-04 9.567257e-04 8.474012e-04 1.634935e-03 1.110194e-06 9.199287e-04 9.747707e-04 9.747833e-04 2.704300e-03 2.726359e-03 2.866703e-03 
     5.5                1.432562e-03 1.439079e-03 1.607454e-03 1.262585e-03 2.746985e-03 1.755444e-06 1.428295e-03 1.606117e-03 1.606162e-03 4.411790e-03 4.401004e-03 4.509195e-03 
     6.5                1.929970e-03 1.941576e-03 2.264421e-03 1.626937e-03 4.125656e-03 2.097377e-06 1.924533e-03 2.236376e-03 2.236648e-03 6.298169e-03 6.274983e-03 6.096649e-03 
     7.5                2.375564e-03 2.390330e-03 2.819871e-03 1.985639e-03 5.612682e-03 2.408044e-06 2.367367e-03 2.812275e-03 2.812294e-03 8.192062e-03 8.148243e-03 7.517306e-03 
     8.5                2.780875e-03 2.798421e-03 3.322898e-03 2.330509e-03 7.078759e-03 2.777393e-06 2.770372e-03 3.351021e-03 3.351344e-03 1.001847e-02 9.958646e-03 8.822298e-03 
     9.5                3.123989e-03 3.144473e-03 3.741136e-03 2.575627e-03 8.500703e-03 2.878217e-06 3.112719e-03 3.822092e-03 3.822341e-03 1.167736e-02 1.163541e-02 9.884619e-03 
    10.5                3.414875e-03 3.436460e-03 4.062485e-03 2.875819e-03 9.911307e-03 2.845364e-06 3.400250e-03 4.263383e-03 4.263862e-03 1.329274e-02 1.321888e-02 1.082995e-02 
    11.5                3.719834e-03 3.743288e-03 4.421852e-03 3.107592e-03 1.156794e-02 2.905240e-06 3.703916e-03 4.721195e-03 4.721476e-03 1.510581e-02 1.506048e-02 1.177510e-02 
    12.5                3.943091e-03 3.968085e-03 4.698121e-03 3.282922e-03 1.283001e-02 2.998366e-06 3.925846e-03 5.047230e-03 5.047493e-03 1.648014e-02 1.642182e-02 1.248220e-02 
    13.5                4.021480e-03 4.047919e-03 4.863575e-03 3.311885e-03 1.393510e-02 2.906976e-06 4.004063e-03 5.177820e-03 5.178311e-03 1.757440e-02 1.750691e-02 1.275833e-02 
    14.5                4.045710e-03 4.069207e-03 4.768618e-03 3.431604e-03 1.455728e-02 2.754576e-06 4.027107e-03 5.228927e-03 5.229356e-03 1.813203e-02 1.807448e-02 1.281352e-02 
    15.5                4.157860e-03 4.183214e-03 4.919205e-03 3.494186e-03 1.573871e-02 2.546487e-06 4.140219e-03 5.340037e-03 5.340718e-03 1.928200e-02 1.923247e-02 1.315867e-02 
    16.5                4.154755e-03 4.178350e-03 4.876960e-03 3.545960e-03 1.605524e-02 2.430301e-06 4.135306e-03 5.357505e-03 5.357853e-03 1.954761e-02 1.949491e-02 1.316026e-02 
    17.5                4.179227e-03 4.203476e-03 4.895735e-03 3.558309e-03 1.652678e-02 2.369744e-06 4.161529e-03 5.326262e-03 5.326834e-03 1.996364e-02 1.992124e-02 1.322299e-02 
    18.5                4.196417e-03 4.218499e-03 4.869040e-03 3.615544e-03 1.703044e-02 2.279208e-06 4.176872e-03 5.288019e-03 5.288477e-03 2.040466e-02 2.035694e-02 1.327252e-02 
    19.5                4.193802e-03 4.216992e-03 4.827627e-03 3.600254e-03 1.716445e-02 2.136358e-06 4.177160e-03 5.174886e-03 5.175356e-03 2.043590e-02 2.042692e-02 1.322580e-02 
    20.5                4.092644e-03 4.114818e-03 4.751734e-03 3.538277e-03 1.697472e-02 1.933088e-06 4.074272e-03 4.986290e-03 4.986998e-03 2.014430e-02 2.008775e-02 1.295599e-02 
    21.5                4.061613e-03 4.080345e-03 4.604262e-03 3.582849e-03 1.710705e-02 1.670065e-06 4.043234e-03 4.840723e-03 4.841199e-03 2.016082e-02 2.013449e-02 1.282531e-02 
    22.5                4.075277e-03 4.096055e-03 4.662057e-03 3.514271e-03 1.738949e-02 1.510096e-06 4.060621e-03 4.716792e-03 4.717085e-03 2.037091e-02 2.035860e-02 1.283978e-02 
    23.5                3.857723e-03 3.877698e-03 4.445017e-03 3.368456e-03 1.647067e-02 1.401745e-06 3.841294e-03 4.417709e-03 4.418555e-03 1.930099e-02 1.925683e-02 1.221294e-02 
    24.5                3.713339e-03 3.729952e-03 4.194098e-03 3.285640e-03 1.579549e-02 1.274554e-06 3.697150e-03 4.153351e-03 4.153669e-03 1.846708e-02 1.844304e-02 1.171993e-02 
    25.5                3.613416e-03 3.630818e-03 4.098016e-03 3.200851e-03 1.543778e-02 1.164014e-06 3.598419e-03 3.926602e-03 3.927158e-03 1.800814e-02 1.797845e-02 1.142136e-02 
    26.5                3.534099e-03 3.548225e-03 3.928145e-03 3.170104e-03 1.487552e-02 1.048163e-06 3.518700e-03 3.718345e-03 3.718585e-03 1.735270e-02 1.734406e-02 1.113764e-02 
    27.5                3.433784e-03 3.448976e-03 3.861416e-03 3.041592e-03 1.429220e-02 8.549037e-07 3.420037e-03 3.508669e-03 3.508936e-03 1.667001e-02 1.665527e-02 1.082763e-02 
    28.5                3.301903e-03 3.315921e-03 3.680827e-03 2.972092e-03 1.367750e-02 6.755155e-07 3.288762e-03 3.245123e-03 3.245820e-03 1.594134e-02 1.591687e-02 1.042300e-02 
    29.5                3.131927e-03 3.146105e-03 3.539706e-03 2.760220e-03 1.295049e-02 5.880907e-07 3.121218e-03 2.941569e-03 2.941887e-03 1.506690e-02 1.505153e-02 9.877543e-03 
    30.5                2.955847e-03 2.967169e-03 3.280986e-03 2.685099e-03 1.234967e-02 5.050464e-07 2.943846e-03 2.724469e-03 2.724686e-03 1.432113e-02 1.429889e-02 9.337782e-03 
    31.5                2.914831e-03 2.923627e-03 3.173938e-03 2.675586e-03 1.197322e-02 4.142055e-07 2.903436e-03 2.559575e-03 2.559999e-03 1.388445e-02 1.386981e-02 9.179956e-03 
    32.5                2.806395e-03 2.816626e-03 3.085328e-03 2.569923e-03 1.124521e-02 3.491655e-07 2.796994e-03 2.349084e-03 2.349231e-03 1.309867e-02 1.308435e-02 8.858116e-03 
    33.5                2.794695e-03 2.802896e-03 2.996992e-03 2.625351e-03 1.086728e-02 2.992095e-07 2.785695e-03 2.170435e-03 2.170913e-03 1.272016e-02 1.270821e-02 8.811150e-03 
    34.5                2.835225e-03 2.842489e-03 3.050323e-03 2.628105e-03 1.094464e-02 2.297118e-07 2.826193e-03 2.083821e-03 2.084001e-03 1.279831e-02 1.279009e-02 8.917212e-03 
    35.5                2.718679e-03 2.728568e-03 2.935442e-03 2.534217e-03 1.007880e-02 1.727116e-07 2.712417e-03 1.945826e-03 1.945993e-03 1.189530e-02 1.188349e-02 8.574030e-03 
    36.5                2.717901e-03 2.724250e-03 2.843812e-03 2.586318e-03 9.832088e-03 1.255386e-07 2.710945e-03 1.816743e-03 1.817071e-03 1.164304e-02 1.165061e-02 8.539539e-03 
    37.5                2.787317e-03 2.793643e-03 2.961815e-03 2.661732e-03 9.935348e-03 8.672425e-08 2.779713e-03 1.759277e-03 1.759475e-03 1.184038e-02 1.180950e-02 8.801615e-03 
    38.5                2.858915e-03 2.861768e-03 2.880987e-03 2.853272e-03 9.707967e-03 5.505424e-08 2.851596e-03 1.687883e-03 1.688279e-03 1.169445e-02 1.169259e-02 8.995231e-03 
    39.5                2.943386e-03 2.951052e-03 3.103211e-03 2.753651e-03 9.627135e-03 3.571431e-08 2.941658e-03 1.637259e-03 1.637349e-03 1.169442e-02 1.171781e-02 9.227112e-03 
    40.5                2.924310e-03 2.927866e-03 3.049942e-03 2.835885e-03 9.442832e-03 2.210845e-08 2.916277e-03 1.569512e-03 1.569718e-03 1.155302e-02 1.152305e-02 9.221346e-03 
    41.5                3.103193e-03 3.104480e-03 3.088113e-03 3.127623e-03 9.472864e-03 1.118366e-08 3.096676e-03 1.550589e-03 1.550964e-03 1.177718e-02 1.177289e-02 9.756878e-03 
    42.5                3.219326e-03 3.225252e-03 3.358033e-03 3.043556e-03 9.224039e-03 2.734809e-09 3.215979e-03 1.543222e-03 1.543380e-03 1.169465e-02 1.172282e-02 1.008986e-02 
    43.5                3.191106e-03 3.193610e-03 3.263855e-03 3.211680e-03 8.788139e-03 1.394574e-10 3.184117e-03 1.495992e-03 1.496048e-03 1.139038e-02 1.133553e-02 1.010034e-02 
    44.5                3.495153e-03 3.493507e-03 3.424636e-03 3.534930e-03 9.153917e-03 6.029314e-11 3.488421e-03 1.543254e-03 1.543418e-03 1.199882e-02 1.202370e-02 1.095585e-02 
    45.5                3.614036e-03 3.622499e-03 3.766036e-03 3.518640e-03 9.189515e-03 7.334237e-11 3.613437e-03 1.546180e-03 1.546543e-03 1.224489e-02 1.220657e-02 1.140334e-02 
    46.5                3.653898e-03 3.652543e-03 3.692252e-03 3.613064e-03 8.938864e-03 5.975777e-08 3.646748e-03 1.511709e-03 1.511760e-03 1.207384e-02 1.206623e-02 1.147620e-02 
    47.5                3.816426e-03 3.819609e-03 3.834794e-03 3.852363e-03 8.866783e-03 1.399894e-07 3.813261e-03 1.533829e-03 1.533800e-03 1.231003e-02 1.227237e-02 1.203441e-02 
    48.5                4.095622e-03 4.089056e-03 3.940027e-03 4.224239e-03 8.827074e-03 2.079778e-07 4.087347e-03 1.581768e-03 1.582090e-03 1.263245e-02 1.266007e-02 1.284082e-02 
    49.5                4.445048e-03 4.440913e-03 4.356131e-03 4.626341e-03 9.115830e-03 1.155874e-07 4.437433e-03 1.640499e-03 1.640498e-03 1.346081e-02 1.338875e-02 1.403126e-02 
    50.5                4.953723e-03 4.946022e-03 4.641813e-03 5.304038e-03 9.447172e-03 3.368145e-08 4.946858e-03 1.723416e-03 1.723526e-03 1.444170e-02 1.439592e-02 1.558536e-02 
    51.5                5.631755e-03 5.626223e-03 5.302944e-03 5.853069e-03 9.747734e-03 4.064461e-08 5.631571e-03 1.807692e-03 1.808063e-03 1.561258e-02 1.569389e-02 1.760669e-02 
    52.5                5.945329e-03 5.946452e-03 5.962353e-03 5.863749e-03 9.544525e-03 8.396445e-08 5.948047e-03 1.855378e-03 1.855343e-03 1.602615e-02 1.608244e-02 1.862583e-02 
    53.5                6.025124e-03 6.027268e-03 6.074586e-03 5.947910e-03 9.109349e-03 9.182733e-08 6.030258e-03 1.871709e-03 1.872129e-03 1.590694e-02 1.593398e-02 1.890767e-02 
    54.5                5.946090e-03 5.959333e-03 6.183009e-03 5.611490e-03 8.614731e-03 5.347844e-08 5.960496e-03 1.852760e-03 1.852863e-03 1.538820e-02 1.548140e-02 1.861838e-02 
    55.5                5.817811e-03 5.830606e-03 6.104199e-03 5.654499e-03 8.215531e-03 5.070926e-08 5.827034e-03 1.825582e-03 1.825652e-03 1.508999e-02 1.500818e-02 1.837965e-02 
    56.5                5.707180e-03 5.721157e-03 5.979425e-03 5.396476e-03 7.803209e-03 4.127782e-08 5.721427e-03 1.783277e-03 1.783493e-03 1.451155e-02 1.454762e-02 1.790777e-02 
    57.5                5.319491e-03 5.337868e-03 5.746649e-03 4.929671e-03 7.075288e-03 1.618511e-08 5.333522e-03 1.693066e-03 1.693226e-03 1.345534e-02 1.343801e-02 1.676018e-02 
    58.5                4.991790e-03 5.001598e-03 5.287891e-03 4.727276e-03 6.394628e-03 2.182798e-08 5.000696e-03 1.566834e-03 1.566932e-03 1.245817e-02 1.244408e-02 1.571391e-02 
    59.5                4.761983e-03 4.772611e-03 5.001914e-03 4.511009e-03 5.891964e-03 6.564509e-08 4.773374e-03 1.439329e-03 1.439499e-03 1.171952e-02 1.172887e-02 1.495719e-02 
    60.5                4.451207e-03 4.469747e-03 4.827192e-03 4.106244e-03 5.325650e-03 1.319195e-07 4.468862e-03 1.286775e-03 1.286950e-03 1.087190e-02 1.086351e-02 1.402205e-02 
    61.5                4.023005e-03 4.040891e-03 4.375528e-03 3.586433e-03 4.554382e-03 1.175734e-07 4.040944e-03 1.126819e-03 1.126967e-03 9.579890e-03 9.662705e-03 1.258981e-02 
    62.5                3.442740e-03 3.460995e-03 4.022923e-03 2.936324e-03 3.768935e-03 9.419713e-08 3.454651e-03 9.616045e-04 9.615093e-04 8.240340e-03 8.202806e-03 1.088658e-02 
    63.5                2.814116e-03 2.834497e-03 3.286655e-03 2.396521e-03 2.972901e-03 6.950583e-08 2.830005e-03 7.908340e-04 7.910684e-04 6.675248e-03 6.641394e-03 8.899277e-03 
    64.5                2.285405e-03 2.299519e-03 2.706350e-03 1.919317e-03 2.350664e-03 6.528974e-08 2.295105e-03 6.269334e-04 6.269601e-04 5.389166e-03 5.355720e-03 7.234517e-03 
    65.5                1.802040e-03 1.814018e-03 2.150328e-03 1.467295e-03 1.770181e-03 5.952208e-08 1.811179e-03 4.732484e-04 4.733002e-04 4.178073e-03 4.177302e-03 5.682122e-03 
    66.5                1.367130e-03 1.379675e-03 1.721361e-03 1.046412e-03 1.285105e-03 4.686013e-08 1.376256e-03 3.392595e-04 3.392876e-04 3.158636e-03 3.142162e-03 4.330595e-03 
    67.5                9.449579e-04 9.565125e-04 1.260662e-03 6.727854e-04 8.432836e-04 4.453725e-08 9.528161e-04 2.208377e-04 2.208931e-04 2.178460e-03 2.151742e-03 3.012063e-03 
    68.5                5.967438e-04 6.051376e-04 8.465138e-04 3.802983e-04 4.950438e-04 3.414127e-08 6.020730e-04 1.271102e-04 1.271201e-04 1.362272e-03 1.341860e-03 1.907755e-03 
    69.5                3.257825e-04 3.318895e-04 5.152301e-04 1.705077e-04 2.487440e-04 3.123593e-08 3.292463e-04 6.192814e-05 6.193955e-05 7.480907e-04 7.248925e-04 1.054726e-03 
    70.5                1.378498e-04 1.414801e-04 2.574354e-04 4.597020e-05 9.449322e-05 3.812832e-08 1.395184e-04 2.356414e-05 2.356223e-05 3.243393e-04 3.038704e-04 4.577344e-04 
    71.5                3.804759e-05 3.945673e-05 9.290996e-05 6.946441e-06 2.346538e-05 3.834793e-08 3.823389e-05 6.037928e-06 6.037472e-06 1.038305e-04 8.369794e-05 1.392850e-04 
    72.5                5.615250e-06 5.927833e-06 1.684431e-05 2.639988e-07 2.647775e-06 1.916861e-08 5.641102e-06 8.828498e-07 8.840755e-07 1.740947e-05 1.223007e-05 2.257976e-05 
    73.5                3.334664e-07 3.620248e-07 1.490672e-06 4.612643e-12 8.513303e-08 4.240429e-09 3.259223e-07 4.250364e-08 4.252818e-08 1.495056e-06 7.137930e-07 1.728033e-06 
    74.5                0.000000e+00 0.000000e+00 0.000000e+00 0.000000e+00 0.000000e+00 0.000000e+00 0.000000e+00 0.000000e+00 0.000000e+00 0.000000e+00 0.000000e+00 0.000000e+00 
    75.5                0.000000e+00 0.000000e+00 0.000000e+00 0.000000e+00 0.000000e+00 0.000000e+00 0.000000e+00 0.000000e+00 0.000000e+00 0.000000e+00 0.000000e+00 0.000000e+00 
    76.5                0.000000e+00 0.000000e+00 0.000000e+00 0.000000e+00 0.000000e+00 0.000000e+00 0.000000e+00 0.000000e+00 0.000000e+00 0.000000e+00 0.000000e+00 0.000000e+00 
    77.5                0.000000e+00 0.000000e+00 0.000000e+00 0.000000e+00 0.000000e+00 0.000000e+00 0.000000e+00 0.000000e+00 0.000000e+00 0.000000e+00 0.000000e+00 0.000000e+00 
    78.5                0.000000e+00 0.000000e+00 0.000000e+00 0.000000e+00 0.000000e+00 0.000000e+00 0.000000e+00 0.000000e+00 0.000000e+00 0.000000e+00 0.000000e+00 0.000000e+00 
    79.5                0.000000e+00 0.000000e+00 0.000000e+00 0.000000e+00 0.000000e+00 0.000000e+00 0.000000e+00 0.000000e+00 0.000000e+00 0.000000e+00 0.000000e+00 0.000000e+00 


