# 80 rows of flux data
# 12 columns of flux data
# 
# total cross-sectional flux  1.056880e+00 /m^2/yr
#
#                             +x ram      -x wake      +y port -y starboard    +z zenith     -z nadir        Earth          Sun     anti-Sun      rot (x)      rot (y)      rot (z) 
# average speed (km/s)         36.76        38.03        29.01        34.33        36.87        30.99        26.76        28.08        27.60        33.57        37.10        33.74 
# total flux (#/m2/yr)  2.620281e-01 2.195842e-01 3.493811e-01 2.931983e-01 4.700045e-01 4.045119e-04 1.672938e-02 1.758596e-01 1.647284e-01 8.741841e-01 7.509722e-01 8.724152e-01 
# velocity (km/s)
     0.5                0.000000e+00 0.000000e+00 0.000000e+00 0.000000e+00 0.000000e+00 0.000000e+00 0.000000e+00 0.000000e+00 0.000000e+00 0.000000e+00 0.000000e+00 0.000000e+00 
     1.5                0.000000e+00 0.000000e+00 0.000000e+00 0.000000e+00 0.000000e+00 0.000000e+00 0.000000e+00 0.000000e+00 0.000000e+00 0.000000e+00 0.000000e+00 0.000000e+00 
     2.5                2.568762e-05 1.197242e-04 7.339547e-05 7.240240e-05 1.560179e-04 6.938880e-08 4.118042e-06 8.214127e-05 7.227133e-05 2.397524e-04 2.391841e-04 2.291624e-04 
     3.5                3.197255e-04 4.731520e-04 3.288619e-04 3.706540e-04 8.112140e-04 3.723913e-07 1.717392e-05 4.323941e-04 3.896238e-04 1.189643e-03 1.266870e-03 1.170428e-03 
     4.5                9.233756e-04 8.487600e-04 7.628611e-04 8.595032e-04 1.744289e-03 9.336504e-07 3.736363e-05 9.674108e-04 9.153884e-04 2.645472e-03 2.774839e-03 2.659387e-03 
     5.5                1.604611e-03 1.271593e-03 1.350301e-03 1.455744e-03 2.770609e-03 1.689704e-06 6.549897e-05 1.617060e-03 1.550674e-03 4.381306e-03 4.454595e-03 4.438172e-03 
     6.5                2.305424e-03 1.655910e-03 2.167339e-03 2.108706e-03 3.818689e-03 2.614338e-06 1.049554e-04 2.270546e-03 2.211963e-03 6.368434e-03 6.137383e-03 6.439476e-03 
     7.5                2.903402e-03 2.036795e-03 3.085291e-03 2.777234e-03 4.775200e-03 3.687028e-06 1.554424e-04 2.882998e-03 2.814996e-03 8.386682e-03 7.667005e-03 8.458529e-03 
     8.5                3.445925e-03 2.382338e-03 4.018360e-03 3.364777e-03 5.641951e-03 4.717833e-06 2.030838e-04 3.430347e-03 3.381937e-03 1.028090e-02 9.051055e-03 1.035138e-02 
     9.5                3.879270e-03 2.652105e-03 4.936823e-03 3.924119e-03 6.386869e-03 5.731478e-06 2.544919e-04 3.927920e-03 3.861141e-03 1.205804e-02 1.019511e-02 1.208471e-02 
    10.5                4.230682e-03 2.962875e-03 5.869954e-03 4.431975e-03 7.045055e-03 6.724821e-06 3.055928e-04 4.406277e-03 4.302447e-03 1.373322e-02 1.123800e-02 1.375520e-02 
    11.5                4.616443e-03 3.201414e-03 7.051179e-03 4.962325e-03 7.744986e-03 7.914187e-06 3.736705e-04 4.895692e-03 4.755499e-03 1.567556e-02 1.228266e-02 1.563371e-02 
    12.5                4.896703e-03 3.383865e-03 7.857785e-03 5.416510e-03 8.232880e-03 8.658763e-06 4.132090e-04 5.241676e-03 5.069795e-03 1.706901e-02 1.303629e-02 1.700393e-02 
    13.5                5.073287e-03 3.418403e-03 8.772539e-03 5.615500e-03 8.498078e-03 9.336047e-06 4.659789e-04 5.388139e-03 5.206730e-03 1.820471e-02 1.341313e-02 1.811447e-02 
    14.5                4.967728e-03 3.550902e-03 9.303464e-03 5.733560e-03 8.599768e-03 1.001985e-05 5.058825e-04 5.453450e-03 5.257821e-03 1.883588e-02 1.351446e-02 1.870166e-02 
    15.5                5.137780e-03 3.615476e-03 1.019033e-02 6.050291e-03 8.901855e-03 1.092263e-05 5.611961e-04 5.586462e-03 5.370240e-03 2.006692e-02 1.393990e-02 1.988609e-02 
    16.5                5.091982e-03 3.666590e-03 1.046150e-02 6.080088e-03 8.918321e-03 1.115507e-05 5.791297e-04 5.601948e-03 5.383126e-03 2.033170e-02 1.395609e-02 2.013616e-02 
    17.5                5.105361e-03 3.680460e-03 1.080423e-02 6.171080e-03 8.995763e-03 1.123273e-05 5.949413e-04 5.572797e-03 5.339214e-03 2.073777e-02 1.403927e-02 2.051503e-02 
    18.5                5.074358e-03 3.747771e-03 1.118098e-02 6.306811e-03 9.055780e-03 1.169950e-05 6.203409e-04 5.543682e-03 5.297888e-03 2.120859e-02 1.411611e-02 2.096629e-02 
    19.5                5.033237e-03 3.732218e-03 1.120794e-02 6.409399e-03 9.034893e-03 1.187090e-05 6.221393e-04 5.434815e-03 5.176024e-03 2.129131e-02 1.405445e-02 2.099566e-02 
    20.5                4.958736e-03 3.678347e-03 1.104694e-02 6.362287e-03 8.812865e-03 1.182710e-05 6.117827e-04 5.245964e-03 4.989036e-03 2.094282e-02 1.377818e-02 2.069816e-02 
    21.5                4.803870e-03 3.728840e-03 1.117386e-02 6.345016e-03 8.777299e-03 1.179926e-05 6.198977e-04 5.101665e-03 4.841928e-03 2.099682e-02 1.366789e-02 2.070096e-02 
    22.5                4.871639e-03 3.653772e-03 1.130391e-02 6.479592e-03 8.807704e-03 1.191403e-05 6.227656e-04 4.982617e-03 4.710629e-03 2.122470e-02 1.368932e-02 2.089988e-02 
    23.5                4.649286e-03 3.507085e-03 1.068215e-02 6.176197e-03 8.310876e-03 1.160557e-05 5.929809e-04 4.665105e-03 4.413730e-03 2.008959e-02 1.300311e-02 1.982262e-02 
    24.5                4.379785e-03 3.424698e-03 1.013671e-02 6.006921e-03 7.969591e-03 1.098257e-05 5.556536e-04 4.389856e-03 4.143006e-03 1.922548e-02 1.245411e-02 1.894238e-02 
    25.5                4.285749e-03 3.335128e-03 9.841376e-03 5.913269e-03 7.739545e-03 1.063633e-05 5.344644e-04 4.155616e-03 3.912148e-03 1.872527e-02 1.212736e-02 1.845424e-02 
    26.5                4.101014e-03 3.309823e-03 9.357472e-03 5.810076e-03 7.523319e-03 1.016048e-05 5.027755e-04 3.939583e-03 3.698276e-03 1.805721e-02 1.179112e-02 1.777577e-02 
    27.5                4.036011e-03 3.177623e-03 8.836870e-03 5.706534e-03 7.273928e-03 9.604939e-06 4.646838e-04 3.724940e-03 3.489122e-03 1.732710e-02 1.143922e-02 1.706100e-02 
    28.5                3.851409e-03 3.106633e-03 8.371456e-03 5.518150e-03 6.975311e-03 9.030333e-06 4.332144e-04 3.453085e-03 3.226138e-03 1.654199e-02 1.100180e-02 1.629907e-02 
    29.5                3.706713e-03 2.883977e-03 7.882215e-03 5.269974e-03 6.604634e-03 8.605759e-06 4.062437e-04 3.135481e-03 2.919922e-03 1.564934e-02 1.041750e-02 1.540831e-02 
    30.5                3.435584e-03 2.812382e-03 7.536233e-03 5.012335e-03 6.233624e-03 8.334275e-06 3.920218e-04 2.906473e-03 2.704815e-03 1.488098e-02 9.854451e-03 1.465679e-02 
    31.5                3.319799e-03 2.801014e-03 7.145362e-03 4.978031e-03 6.111656e-03 7.682783e-06 3.555007e-04 2.735625e-03 2.535221e-03 1.440025e-02 9.658425e-03 1.417169e-02 
    32.5                3.229862e-03 2.688185e-03 6.615125e-03 4.753351e-03 5.853043e-03 7.060321e-06 3.220245e-04 2.513224e-03 2.323618e-03 1.356383e-02 9.293831e-03 1.335846e-02 
    33.5                3.130229e-03 2.749576e-03 6.246731e-03 4.707312e-03 5.790587e-03 6.531833e-06 2.906806e-04 2.328048e-03 2.138649e-03 1.314234e-02 9.213135e-03 1.294643e-02 
    34.5                3.188193e-03 2.750330e-03 6.218073e-03 4.792401e-03 5.861568e-03 6.389009e-06 2.825049e-04 2.240516e-03 2.049092e-03 1.321570e-02 9.315828e-03 1.301079e-02 
    35.5                3.067039e-03 2.648895e-03 5.615067e-03 4.501522e-03 5.589809e-03 5.730817e-06 2.464977e-04 2.090787e-03 1.913942e-03 1.225574e-02 8.925251e-03 1.208078e-02 
    36.5                2.963846e-03 2.706495e-03 5.402647e-03 4.452188e-03 5.567616e-03 5.486283e-06 2.314054e-04 1.957210e-03 1.782637e-03 1.200482e-02 8.873813e-03 1.181647e-02 
    37.5                3.094511e-03 2.784756e-03 5.415268e-03 4.537548e-03 5.695459e-03 5.548670e-06 2.288800e-04 1.899122e-03 1.723642e-03 1.216375e-02 9.142289e-03 1.202383e-02 
    38.5                3.000070e-03 2.984357e-03 5.187858e-03 4.516437e-03 5.812396e-03 5.254531e-06 2.124075e-04 1.825263e-03 1.650219e-03 1.202189e-02 9.309946e-03 1.186150e-02 
    39.5                3.229838e-03 2.872435e-03 5.049581e-03 4.557649e-03 5.966539e-03 5.055679e-06 1.998599e-04 1.772082e-03 1.595999e-03 1.203038e-02 9.523639e-03 1.185009e-02 
    40.5                3.178138e-03 2.960071e-03 4.915312e-03 4.499558e-03 5.910539e-03 4.957752e-06 1.908629e-04 1.699598e-03 1.529532e-03 1.181991e-02 9.515607e-03 1.171003e-02 
    41.5                3.208439e-03 3.264093e-03 4.826747e-03 4.607941e-03 6.244772e-03 4.866497e-06 1.815634e-04 1.681738e-03 1.506697e-03 1.206167e-02 1.003607e-02 1.193662e-02 
    42.5                3.487613e-03 3.163871e-03 4.585658e-03 4.589708e-03 6.455938e-03 4.669303e-06 1.668864e-04 1.672017e-03 1.497426e-03 1.199324e-02 1.034620e-02 1.185286e-02 
    43.5                3.391634e-03 3.346217e-03 4.314148e-03 4.426668e-03 6.371996e-03 4.566149e-06 1.554036e-04 1.619852e-03 1.452819e-03 1.158391e-02 1.034634e-02 1.156576e-02 
    44.5                3.543319e-03 3.677706e-03 4.392593e-03 4.696528e-03 6.957514e-03 4.631862e-06 1.532068e-04 1.671933e-03 1.493724e-03 1.227359e-02 1.119084e-02 1.217075e-02 
    45.5                3.906783e-03 3.650775e-03 4.350606e-03 4.765041e-03 7.184873e-03 4.676736e-06 1.494695e-04 1.673619e-03 1.495884e-03 1.244688e-02 1.163167e-02 1.242664e-02 
    46.5                3.824066e-03 3.747580e-03 4.167848e-03 4.701219e-03 7.242911e-03 4.569175e-06 1.403809e-04 1.636676e-03 1.461993e-03 1.229862e-02 1.168999e-02 1.225947e-02 
    47.5                3.965131e-03 3.994233e-03 4.059970e-03 4.734992e-03 7.537992e-03 4.595156e-06 1.354668e-04 1.657529e-03 1.480857e-03 1.248169e-02 1.222885e-02 1.251408e-02 
    48.5                4.058044e-03 4.377265e-03 3.938734e-03 4.819817e-03 8.063393e-03 4.654693e-06 1.303256e-04 1.708071e-03 1.525911e-03 1.286974e-02 1.301705e-02 1.285453e-02 
    49.5                4.491022e-03 4.805815e-03 3.968886e-03 5.066364e-03 8.737531e-03 4.923174e-06 1.292735e-04 1.773226e-03 1.581159e-03 1.359919e-02 1.422312e-02 1.373192e-02 
    50.5                4.778646e-03 5.500143e-03 3.970885e-03 5.380945e-03 9.717217e-03 5.215489e-06 1.265564e-04 1.865201e-03 1.657450e-03 1.461059e-02 1.577354e-02 1.475246e-02 
    51.5                5.455857e-03 6.052857e-03 3.918630e-03 5.732892e-03 1.102949e-02 5.482048e-06 1.240337e-04 1.960184e-03 1.732835e-03 1.591441e-02 1.777961e-02 1.598582e-02 
    52.5                6.147893e-03 6.053774e-03 3.700022e-03 5.769285e-03 1.163112e-02 5.625921e-06 1.173122e-04 2.009450e-03 1.777369e-03 1.629879e-02 1.879482e-02 1.646486e-02 
    53.5                6.259888e-03 6.133471e-03 3.423189e-03 5.627397e-03 1.176908e-02 5.575649e-06 1.088086e-04 2.023446e-03 1.795912e-03 1.613131e-02 1.905561e-02 1.637210e-02 
    54.5                6.373862e-03 5.781915e-03 3.152262e-03 5.408879e-03 1.161574e-02 5.334917e-06 1.001612e-04 1.999660e-03 1.780988e-03 1.566695e-02 1.875399e-02 1.586166e-02 
    55.5                6.304038e-03 5.825691e-03 2.961745e-03 5.205929e-03 1.135147e-02 5.293479e-06 9.487569e-05 1.966682e-03 1.757951e-03 1.517704e-02 1.851396e-02 1.558030e-02 
    56.5                6.164365e-03 5.552731e-03 2.748454e-03 5.018134e-03 1.113667e-02 4.989576e-06 8.653304e-05 1.918222e-03 1.718236e-03 1.470837e-02 1.801950e-02 1.498346e-02 
    57.5                5.935914e-03 5.068730e-03 2.454573e-03 4.602508e-03 1.037544e-02 4.671839e-06 7.816836e-05 1.817121e-03 1.635775e-03 1.358197e-02 1.686870e-02 1.391878e-02 
    58.5                5.461790e-03 4.860703e-03 2.161678e-03 4.217016e-03 9.725829e-03 4.312631e-06 6.942178e-05 1.680239e-03 1.514440e-03 1.257543e-02 1.580902e-02 1.290181e-02 
    59.5                5.160587e-03 4.633672e-03 1.930482e-03 3.939509e-03 9.271146e-03 4.016851e-06 6.147987e-05 1.544032e-03 1.389453e-03 1.184245e-02 1.502970e-02 1.213888e-02 
    60.5                4.980579e-03 4.210203e-03 1.701722e-03 3.604542e-03 8.660956e-03 3.741099e-06 5.538057e-05 1.380599e-03 1.239456e-03 1.095704e-02 1.407701e-02 1.126990e-02 
    61.5                4.513284e-03 3.668390e-03 1.391099e-03 3.157735e-03 7.833439e-03 3.255776e-06 4.551623e-05 1.209489e-03 1.085086e-03 9.750590e-03 1.263395e-02 9.947761e-03 
    62.5                4.165294e-03 3.005177e-03 1.127502e-03 2.649886e-03 6.700775e-03 2.858825e-06 3.837874e-05 1.030888e-03 9.270786e-04 8.275490e-03 1.093590e-02 8.586370e-03 
    63.5                3.402779e-03 2.448611e-03 8.572529e-04 2.124065e-03 5.476259e-03 2.310034e-06 2.938115e-05 8.463406e-04 7.636099e-04 6.693062e-03 8.931556e-03 6.959647e-03 
    64.5                2.803193e-03 1.959590e-03 6.633933e-04 1.697928e-03 4.443609e-03 1.877150e-06 2.328832e-05 6.707901e-04 6.050724e-04 5.396651e-03 7.261246e-03 5.625822e-03 
    65.5                2.226346e-03 1.495779e-03 4.779158e-04 1.306891e-03 3.506329e-03 1.445610e-06 1.713584e-05 5.067846e-04 4.560956e-04 4.210674e-03 5.700836e-03 4.367548e-03 
    66.5                1.784139e-03 1.062754e-03 3.334959e-04 9.691400e-04 2.659882e-03 1.099702e-06 1.241776e-05 3.639053e-04 3.263561e-04 3.163779e-03 4.342022e-03 3.307585e-03 
    67.5                1.310323e-03 6.799380e-04 2.077602e-04 6.518932e-04 1.838480e-03 7.684764e-07 8.258875e-06 2.371570e-04 2.118960e-04 2.164222e-03 3.020091e-03 2.287410e-03 
    68.5                8.809533e-04 3.809012e-04 1.128497e-04 3.967737e-04 1.160427e-03 4.842617e-07 4.888139e-06 1.370106e-04 1.214243e-04 1.347898e-03 1.910916e-03 1.433961e-03 
    69.5                5.392585e-04 1.682515e-04 5.281131e-05 2.097023e-04 6.343120e-04 2.713613e-07 2.569672e-06 6.707292e-05 5.879517e-05 7.277633e-04 1.057719e-03 7.924379e-04 
    70.5                2.702047e-04 4.288780e-05 1.908712e-05 8.569552e-05 2.672515e-04 1.232271e-07 1.082570e-06 2.556489e-05 2.217948e-05 3.030310e-04 4.580229e-04 3.450740e-04 
    71.5                9.807452e-05 5.626112e-06 5.108506e-06 2.303788e-05 7.217327e-05 4.688885e-08 3.708280e-07 6.488702e-06 5.609099e-06 8.162623e-05 1.390084e-04 1.107936e-04 
    72.5                1.714808e-05 1.184882e-07 6.038996e-07 3.080590e-06 9.905946e-06 8.850169e-09 6.405442e-08 9.108272e-07 7.966734e-07 1.105918e-05 2.164583e-05 1.802012e-05 
    73.5                1.325569e-06 0.000000e+00 1.685623e-08 1.443202e-07 4.965342e-07 8.816578e-10 5.242236e-09 3.887878e-08 3.343653e-08 5.379487e-07 1.469663e-06 1.341768e-06 
    74.5                0.000000e+00 0.000000e+00 0.000000e+00 0.000000e+00 0.000000e+00 0.000000e+00 0.000000e+00 0.000000e+00 0.000000e+00 0.000000e+00 0.000000e+00 0.000000e+00 
    75.5                0.000000e+00 0.000000e+00 0.000000e+00 0.000000e+00 0.000000e+00 0.000000e+00 0.000000e+00 0.000000e+00 0.000000e+00 0.000000e+00 0.000000e+00 0.000000e+00 
    76.5                0.000000e+00 0.000000e+00 0.000000e+00 0.000000e+00 0.000000e+00 0.000000e+00 0.000000e+00 0.000000e+00 0.000000e+00 0.000000e+00 0.000000e+00 0.000000e+00 
    77.5                0.000000e+00 0.000000e+00 0.000000e+00 0.000000e+00 0.000000e+00 0.000000e+00 0.000000e+00 0.000000e+00 0.000000e+00 0.000000e+00 0.000000e+00 0.000000e+00 
    78.5                0.000000e+00 0.000000e+00 0.000000e+00 0.000000e+00 0.000000e+00 0.000000e+00 0.000000e+00 0.000000e+00 0.000000e+00 0.000000e+00 0.000000e+00 0.000000e+00 
    79.5                0.000000e+00 0.000000e+00 0.000000e+00 0.000000e+00 0.000000e+00 0.000000e+00 0.000000e+00 0.000000e+00 0.000000e+00 0.000000e+00 0.000000e+00 0.000000e+00 


