# 80 rows of flux data
# 12 columns of flux data
# 
# total cross-sectional flux  2.311294e+00 /m^2/yr
#
#                             +x ram      -x wake      +y port -y starboard    +z zenith     -z nadir        Earth          Sun     anti-Sun      rot (x)      rot (y)      rot (z) 
# average speed (km/s)         24.48        24.47        17.22        25.14        24.13        23.53        24.47        24.97        24.98        23.96        24.35        24.40 
# total flux (#/m2/yr)  7.041338e-01 7.036629e-01 1.228837e-01 1.001713e+00 9.650967e-01 7.861827e-04 6.978459e-01 1.008093e+00 1.008345e+00 1.567019e+00 1.885925e+00 1.996399e+00 
# velocity (km/s)
     0.5                0.000000e+00 0.000000e+00 0.000000e+00 0.000000e+00 0.000000e+00 0.000000e+00 0.000000e+00 0.000000e+00 0.000000e+00 0.000000e+00 0.000000e+00 0.000000e+00 
     1.5                0.000000e+00 0.000000e+00 0.000000e+00 0.000000e+00 0.000000e+00 0.000000e+00 0.000000e+00 0.000000e+00 0.000000e+00 0.000000e+00 0.000000e+00 0.000000e+00 
     2.5                8.271803e-07 8.261752e-07 2.199222e-06 0.000000e+00 1.668444e-07 6.767495e-09 8.306660e-07 5.527080e-07 5.447098e-07 2.213572e-06 1.694654e-06 2.906265e-06 
     3.5                4.559993e-05 4.565160e-05 4.629533e-05 5.737075e-06 2.280406e-05 1.029080e-07 4.543713e-05 2.508000e-05 2.503279e-05 6.210951e-05 9.647749e-05 1.152185e-04 
     4.5                2.749712e-04 2.759614e-04 2.238490e-04 1.608645e-04 2.534965e-04 4.478565e-07 2.740581e-04 1.633707e-04 1.633473e-04 5.021532e-04 6.488252e-04 7.389679e-04 
     5.5                9.792106e-04 9.824661e-04 7.262772e-04 7.342963e-04 1.062736e-03 1.505725e-06 9.761011e-04 6.630317e-04 6.624925e-04 1.982496e-03 2.412771e-03 2.693987e-03 
     6.5                2.364663e-03 2.368422e-03 1.426319e-03 2.423494e-03 3.100408e-03 3.108761e-06 2.356777e-03 1.865491e-03 1.865106e-03 5.450611e-03 6.191356e-03 6.742301e-03 
     7.5                4.141770e-03 4.146968e-03 2.508538e-03 4.470310e-03 5.708206e-03 5.741774e-06 4.126955e-03 3.580509e-03 3.580408e-03 9.969389e-03 1.106515e-02 1.199590e-02 
     8.5                6.779200e-03 6.780767e-03 3.615670e-03 7.490048e-03 9.390745e-03 9.494173e-06 6.752769e-03 6.052210e-03 6.053913e-03 1.613148e-02 1.817105e-02 1.938370e-02 
     9.5                9.922867e-03 9.924936e-03 5.150558e-03 1.161323e-02 1.413937e-02 1.305010e-05 9.882102e-03 9.319188e-03 9.320235e-03 2.425125e-02 2.683533e-02 2.874853e-02 
    10.5                1.246556e-02 1.246084e-02 6.427196e-03 1.549829e-02 1.897254e-02 1.577939e-05 1.240711e-02 1.299181e-02 1.299400e-02 3.210341e-02 3.457009e-02 3.679907e-02 
    11.5                1.460751e-02 1.460410e-02 7.408093e-03 1.795952e-02 2.255238e-02 1.883851e-05 1.452365e-02 1.673232e-02 1.673451e-02 3.765673e-02 4.078560e-02 4.289487e-02 
    12.5                1.632395e-02 1.631792e-02 7.848749e-03 2.060015e-02 2.563894e-02 2.114137e-05 1.621715e-02 2.014368e-02 2.014861e-02 4.241300e-02 4.596676e-02 4.803786e-02 
    13.5                1.762035e-02 1.761099e-02 8.161364e-03 2.222333e-02 2.751945e-02 2.277338e-05 1.749103e-02 2.288192e-02 2.288617e-02 4.526366e-02 4.955784e-02 5.157368e-02 
    14.5                1.948580e-02 1.947842e-02 8.053662e-03 2.463281e-02 2.961801e-02 2.501981e-05 1.933093e-02 2.609591e-02 2.610020e-02 4.854870e-02 5.427469e-02 5.634488e-02 
    15.5                2.120834e-02 2.120081e-02 7.805039e-03 2.749805e-02 3.149660e-02 2.708028e-05 2.103134e-02 2.918764e-02 2.919385e-02 5.181782e-02 5.858297e-02 6.117081e-02 
    16.5                2.293680e-02 2.292407e-02 7.509202e-03 3.041043e-02 3.360663e-02 2.839274e-05 2.273653e-02 3.229758e-02 3.230416e-02 5.519745e-02 6.300321e-02 6.593579e-02 
    17.5                2.426007e-02 2.425075e-02 6.905647e-03 3.264013e-02 3.486866e-02 3.005390e-05 2.404101e-02 3.475887e-02 3.476669e-02 5.720124e-02 6.618396e-02 6.933868e-02 
    18.5                2.555713e-02 2.554556e-02 6.315579e-03 3.486656e-02 3.596236e-02 3.101612e-05 2.531895e-02 3.723601e-02 3.724402e-02 5.902062e-02 6.917229e-02 7.270013e-02 
    19.5                2.663092e-02 2.661558e-02 5.860425e-03 3.694025e-02 3.711683e-02 3.155796e-05 2.637603e-02 3.937904e-02 3.938953e-02 6.088776e-02 7.180401e-02 7.565950e-02 
    20.5                2.716334e-02 2.714838e-02 5.235447e-03 3.814325e-02 3.750509e-02 3.196849e-05 2.689905e-02 4.061903e-02 4.062887e-02 6.140005e-02 7.301068e-02 7.700161e-02 
    21.5                2.781335e-02 2.780041e-02 4.715509e-03 3.919342e-02 3.768113e-02 3.247570e-05 2.754025e-02 4.171958e-02 4.173153e-02 6.167948e-02 7.424104e-02 7.846557e-02 
    22.5                2.876882e-02 2.875294e-02 4.318184e-03 4.074612e-02 3.860886e-02 3.314777e-05 2.848395e-02 4.329346e-02 4.330417e-02 6.300606e-02 7.653441e-02 8.090598e-02 
    23.5                2.937103e-02 2.935511e-02 3.766248e-03 4.218242e-02 3.921367e-02 3.317537e-05 2.907829e-02 4.444558e-02 4.445690e-02 6.388725e-02 7.797932e-02 8.255605e-02 
    24.5                2.951159e-02 2.949341e-02 3.302603e-03 4.271465e-02 3.913815e-02 3.285154e-05 2.921631e-02 4.473383e-02 4.474433e-02 6.364516e-02 7.816826e-02 8.285687e-02 
    25.5                2.954339e-02 2.952574e-02 2.815394e-03 4.303245e-02 3.893898e-02 3.233184e-05 2.924875e-02 4.474266e-02 4.475357e-02 6.311167e-02 7.807971e-02 8.279236e-02 
    26.5                2.935956e-02 2.934024e-02 2.415267e-03 4.310253e-02 3.854157e-02 3.160868e-05 2.906746e-02 4.446934e-02 4.448010e-02 6.231122e-02 7.748018e-02 8.224674e-02 
    27.5                2.859476e-02 2.857357e-02 2.041487e-03 4.237408e-02 3.757219e-02 3.020712e-05 2.831135e-02 4.334236e-02 4.335544e-02 6.054829e-02 7.547989e-02 8.017662e-02 
    28.5                2.776167e-02 2.774208e-02 1.736077e-03 4.117241e-02 3.623277e-02 2.911834e-05 2.748830e-02 4.191615e-02 4.192617e-02 5.825093e-02 7.311510e-02 7.769358e-02 
    29.5                2.680824e-02 2.678751e-02 1.450427e-03 4.001311e-02 3.498388e-02 2.763758e-05 2.654631e-02 4.039678e-02 4.040823e-02 5.608264e-02 7.058442e-02 7.504540e-02 
    30.5                2.551919e-02 2.549925e-02 1.181986e-03 3.828562e-02 3.327118e-02 2.605459e-05 2.527237e-02 3.835049e-02 3.835956e-02 5.320083e-02 6.717397e-02 7.144726e-02 
    31.5                2.410591e-02 2.408503e-02 9.496525e-04 3.634080e-02 3.140594e-02 2.430126e-05 2.387471e-02 3.609042e-02 3.610128e-02 5.007958e-02 6.343116e-02 6.750259e-02 
    32.5                2.248723e-02 2.246731e-02 7.543192e-04 3.406570e-02 2.929976e-02 2.239255e-05 2.227420e-02 3.351597e-02 3.352559e-02 4.659638e-02 5.916991e-02 6.300047e-02 
    33.5                2.065344e-02 2.063192e-02 6.040335e-04 3.149116e-02 2.698837e-02 2.025947e-05 2.046049e-02 3.063783e-02 3.064637e-02 4.282001e-02 5.438680e-02 5.794290e-02 
    34.5                1.856777e-02 1.854892e-02 4.714642e-04 2.847216e-02 2.433355e-02 1.804110e-05 1.839744e-02 2.740429e-02 2.741148e-02 3.852721e-02 4.894029e-02 5.216141e-02 
    35.5                1.647692e-02 1.645762e-02 3.547127e-04 2.539391e-02 2.164188e-02 1.581904e-05 1.632793e-02 2.418604e-02 2.419415e-02 3.419220e-02 4.345602e-02 4.633411e-02 
    36.5                1.438524e-02 1.436860e-02 2.581821e-04 2.226928e-02 1.892882e-02 1.369377e-05 1.425776e-02 2.097573e-02 2.098084e-02 2.984189e-02 3.796077e-02 4.049186e-02 
    37.5                1.238221e-02 1.236634e-02 1.852029e-04 1.926845e-02 1.634270e-02 1.161663e-05 1.227456e-02 1.792501e-02 1.793069e-02 2.571245e-02 3.270195e-02 3.489720e-02 
    38.5                1.042325e-02 1.040843e-02 1.283282e-04 1.631799e-02 1.381491e-02 9.651054e-06 1.033436e-02 1.498888e-02 1.499391e-02 2.169616e-02 2.756411e-02 2.942757e-02 
    39.5                8.524613e-03 8.511696e-03 8.460372e-05 1.348762e-02 1.139933e-02 7.721782e-06 8.453703e-03 1.219317e-02 1.219709e-02 1.787244e-02 2.260553e-02 2.415188e-02 
    40.5                6.674386e-03 6.662249e-03 5.338601e-05 1.069131e-02 9.024593e-03 5.901883e-06 6.620246e-03 9.495735e-03 9.498859e-03 1.412700e-02 1.776210e-02 1.899297e-02 
    41.5                4.976187e-03 4.966573e-03 3.172710e-05 8.087786e-03 6.820116e-03 4.274851e-06 4.936957e-03 7.050640e-03 7.052990e-03 1.066129e-02 1.330213e-02 1.423741e-02 
    42.5                3.534665e-03 3.527404e-03 1.802072e-05 5.809791e-03 4.895391e-03 2.975591e-06 3.507542e-03 4.980103e-03 4.981701e-03 7.643372e-03 9.482161e-03 1.015655e-02 
    43.5                2.389427e-03 2.383385e-03 9.641291e-06 3.995117e-03 3.364502e-03 1.932383e-06 2.371583e-03 3.353568e-03 3.355088e-03 5.247737e-03 6.444002e-03 6.909850e-03 
    44.5                1.466056e-03 1.462104e-03 4.532507e-06 2.533938e-03 2.133011e-03 1.109461e-06 1.455530e-03 2.067583e-03 2.068531e-03 3.323891e-03 3.998794e-03 4.296701e-03 
    45.5                7.864295e-04 7.839484e-04 1.858909e-06 1.413160e-03 1.189206e-03 5.414012e-07 7.810456e-04 1.117836e-03 1.118217e-03 1.851714e-03 2.174289e-03 2.341957e-03 
    46.5                3.446240e-04 3.432859e-04 6.086737e-07 6.587036e-04 5.542321e-04 2.013362e-07 3.424235e-04 5.003601e-04 5.006789e-04 8.624548e-04 9.744628e-04 1.053649e-03 
    47.5                1.085297e-04 1.080627e-04 1.379536e-07 2.261949e-04 1.902946e-04 5.224902e-08 1.078982e-04 1.638274e-04 1.638966e-04 2.959828e-04 3.178765e-04 3.456229e-04 
    48.5                2.362781e-05 2.353039e-05 1.981190e-08 5.441972e-05 4.578003e-05 7.998129e-09 2.350666e-05 3.742525e-05 3.745600e-05 7.117690e-05 7.219523e-05 7.900033e-05 
    49.5                2.780468e-06 2.773479e-06 6.705078e-10 7.542622e-06 6.345044e-06 2.902487e-10 2.769785e-06 4.839443e-06 4.847154e-06 9.861027e-06 9.153509e-06 1.012132e-05 
    50.5                5.339446e-08 5.398571e-08 0.000000e+00 2.162782e-07 1.818987e-07 0.000000e+00 5.344082e-08 1.240085e-07 1.238950e-07 2.826718e-07 2.208535e-07 2.506592e-07 
    51.5                0.000000e+00 0.000000e+00 0.000000e+00 0.000000e+00 0.000000e+00 0.000000e+00 0.000000e+00 0.000000e+00 0.000000e+00 0.000000e+00 0.000000e+00 0.000000e+00 
    52.5                0.000000e+00 0.000000e+00 0.000000e+00 0.000000e+00 0.000000e+00 0.000000e+00 0.000000e+00 0.000000e+00 0.000000e+00 0.000000e+00 0.000000e+00 0.000000e+00 
    53.5                0.000000e+00 0.000000e+00 0.000000e+00 0.000000e+00 0.000000e+00 0.000000e+00 0.000000e+00 0.000000e+00 0.000000e+00 0.000000e+00 0.000000e+00 0.000000e+00 
    54.5                0.000000e+00 0.000000e+00 0.000000e+00 0.000000e+00 0.000000e+00 0.000000e+00 0.000000e+00 0.000000e+00 0.000000e+00 0.000000e+00 0.000000e+00 0.000000e+00 
    55.5                0.000000e+00 0.000000e+00 0.000000e+00 0.000000e+00 0.000000e+00 0.000000e+00 0.000000e+00 0.000000e+00 0.000000e+00 0.000000e+00 0.000000e+00 0.000000e+00 
    56.5                0.000000e+00 0.000000e+00 0.000000e+00 0.000000e+00 0.000000e+00 0.000000e+00 0.000000e+00 0.000000e+00 0.000000e+00 0.000000e+00 0.000000e+00 0.000000e+00 
    57.5                0.000000e+00 0.000000e+00 0.000000e+00 0.000000e+00 0.000000e+00 0.000000e+00 0.000000e+00 0.000000e+00 0.000000e+00 0.000000e+00 0.000000e+00 0.000000e+00 
    58.5                0.000000e+00 0.000000e+00 0.000000e+00 0.000000e+00 0.000000e+00 0.000000e+00 0.000000e+00 0.000000e+00 0.000000e+00 0.000000e+00 0.000000e+00 0.000000e+00 
    59.5                0.000000e+00 0.000000e+00 0.000000e+00 0.000000e+00 0.000000e+00 0.000000e+00 0.000000e+00 0.000000e+00 0.000000e+00 0.000000e+00 0.000000e+00 0.000000e+00 
    60.5                0.000000e+00 0.000000e+00 0.000000e+00 0.000000e+00 0.000000e+00 0.000000e+00 0.000000e+00 0.000000e+00 0.000000e+00 0.000000e+00 0.000000e+00 0.000000e+00 
    61.5                0.000000e+00 0.000000e+00 0.000000e+00 0.000000e+00 0.000000e+00 0.000000e+00 0.000000e+00 0.000000e+00 0.000000e+00 0.000000e+00 0.000000e+00 0.000000e+00 
    62.5                0.000000e+00 0.000000e+00 0.000000e+00 0.000000e+00 0.000000e+00 0.000000e+00 0.000000e+00 0.000000e+00 0.000000e+00 0.000000e+00 0.000000e+00 0.000000e+00 
    63.5                0.000000e+00 0.000000e+00 0.000000e+00 0.000000e+00 0.000000e+00 0.000000e+00 0.000000e+00 0.000000e+00 0.000000e+00 0.000000e+00 0.000000e+00 0.000000e+00 
    64.5                0.000000e+00 0.000000e+00 0.000000e+00 0.000000e+00 0.000000e+00 0.000000e+00 0.000000e+00 0.000000e+00 0.000000e+00 0.000000e+00 0.000000e+00 0.000000e+00 
    65.5                0.000000e+00 0.000000e+00 0.000000e+00 0.000000e+00 0.000000e+00 0.000000e+00 0.000000e+00 0.000000e+00 0.000000e+00 0.000000e+00 0.000000e+00 0.000000e+00 
    66.5                0.000000e+00 0.000000e+00 0.000000e+00 0.000000e+00 0.000000e+00 0.000000e+00 0.000000e+00 0.000000e+00 0.000000e+00 0.000000e+00 0.000000e+00 0.000000e+00 
    67.5                0.000000e+00 0.000000e+00 0.000000e+00 0.000000e+00 0.000000e+00 0.000000e+00 0.000000e+00 0.000000e+00 0.000000e+00 0.000000e+00 0.000000e+00 0.000000e+00 
    68.5                0.000000e+00 0.000000e+00 0.000000e+00 0.000000e+00 0.000000e+00 0.000000e+00 0.000000e+00 0.000000e+00 0.000000e+00 0.000000e+00 0.000000e+00 0.000000e+00 
    69.5                0.000000e+00 0.000000e+00 0.000000e+00 0.000000e+00 0.000000e+00 0.000000e+00 0.000000e+00 0.000000e+00 0.000000e+00 0.000000e+00 0.000000e+00 0.000000e+00 
    70.5                0.000000e+00 0.000000e+00 0.000000e+00 0.000000e+00 0.000000e+00 0.000000e+00 0.000000e+00 0.000000e+00 0.000000e+00 0.000000e+00 0.000000e+00 0.000000e+00 
    71.5                0.000000e+00 0.000000e+00 0.000000e+00 0.000000e+00 0.000000e+00 0.000000e+00 0.000000e+00 0.000000e+00 0.000000e+00 0.000000e+00 0.000000e+00 0.000000e+00 
    72.5                0.000000e+00 0.000000e+00 0.000000e+00 0.000000e+00 0.000000e+00 0.000000e+00 0.000000e+00 0.000000e+00 0.000000e+00 0.000000e+00 0.000000e+00 0.000000e+00 
    73.5                0.000000e+00 0.000000e+00 0.000000e+00 0.000000e+00 0.000000e+00 0.000000e+00 0.000000e+00 0.000000e+00 0.000000e+00 0.000000e+00 0.000000e+00 0.000000e+00 
    74.5                0.000000e+00 0.000000e+00 0.000000e+00 0.000000e+00 0.000000e+00 0.000000e+00 0.000000e+00 0.000000e+00 0.000000e+00 0.000000e+00 0.000000e+00 0.000000e+00 
    75.5                0.000000e+00 0.000000e+00 0.000000e+00 0.000000e+00 0.000000e+00 0.000000e+00 0.000000e+00 0.000000e+00 0.000000e+00 0.000000e+00 0.000000e+00 0.000000e+00 
    76.5                0.000000e+00 0.000000e+00 0.000000e+00 0.000000e+00 0.000000e+00 0.000000e+00 0.000000e+00 0.000000e+00 0.000000e+00 0.000000e+00 0.000000e+00 0.000000e+00 
    77.5                0.000000e+00 0.000000e+00 0.000000e+00 0.000000e+00 0.000000e+00 0.000000e+00 0.000000e+00 0.000000e+00 0.000000e+00 0.000000e+00 0.000000e+00 0.000000e+00 
    78.5                0.000000e+00 0.000000e+00 0.000000e+00 0.000000e+00 0.000000e+00 0.000000e+00 0.000000e+00 0.000000e+00 0.000000e+00 0.000000e+00 0.000000e+00 0.000000e+00 
    79.5                0.000000e+00 0.000000e+00 0.000000e+00 0.000000e+00 0.000000e+00 0.000000e+00 0.000000e+00 0.000000e+00 0.000000e+00 0.000000e+00 0.000000e+00 0.000000e+00 


