# 80 rows of flux data
# 12 columns of flux data
# 
# total cross-sectional flux  2.056837e+00 /m^2/yr
#
#                             +x ram      -x wake      +y port -y starboard    +z zenith     -z nadir        Earth          Sun     anti-Sun      rot (x)      rot (y)      rot (z) 
# average speed (km/s)         24.00        23.99        17.66        24.38        23.30        23.54        23.99        24.29        24.29        23.17        23.76        23.82 
# total flux (#/m2/yr)  6.435771e-01 6.432488e-01 1.255926e-01 8.477645e-01 8.341882e-01 7.931018e-04 6.376493e-01 8.994075e-01 8.991298e-01 1.360747e+00 1.692709e+00 1.785492e+00 
# velocity (km/s)
     0.5                0.000000e+00 0.000000e+00 0.000000e+00 0.000000e+00 0.000000e+00 0.000000e+00 0.000000e+00 0.000000e+00 0.000000e+00 0.000000e+00 0.000000e+00 0.000000e+00 
     1.5                0.000000e+00 0.000000e+00 0.000000e+00 0.000000e+00 0.000000e+00 0.000000e+00 0.000000e+00 0.000000e+00 0.000000e+00 0.000000e+00 0.000000e+00 0.000000e+00 
     2.5                9.687160e-07 1.008016e-06 0.000000e+00 3.609252e-06 4.631012e-06 0.000000e+00 1.006385e-06 7.532229e-07 7.405989e-07 5.940565e-06 5.200741e-06 4.325349e-06 
     3.5                7.674173e-05 7.772911e-05 5.510673e-06 1.256375e-04 1.522506e-04 2.515120e-08 7.739853e-05 5.741048e-05 5.738184e-05 2.125754e-04 2.387597e-04 2.257471e-04 
     4.5                4.117527e-04 4.135798e-04 6.149214e-05 6.437087e-04 7.322746e-04 3.070854e-07 4.114163e-04 3.254256e-04 3.251829e-04 1.107998e-03 1.225489e-03 1.208295e-03 
     5.5                1.281930e-03 1.284780e-03 3.182763e-04 1.748178e-03 2.109625e-03 1.303082e-06 1.278873e-03 1.112834e-03 1.111796e-03 3.269840e-03 3.688069e-03 3.654349e-03 
     6.5                2.580365e-03 2.583229e-03 9.305098e-04 3.278438e-03 4.073023e-03 3.185221e-06 2.571332e-03 2.333077e-03 2.331718e-03 6.521997e-03 7.298207e-03 7.375081e-03 
     7.5                4.571450e-03 4.573721e-03 1.774233e-03 5.820134e-03 7.284843e-03 5.756928e-06 4.553429e-03 4.252764e-03 4.250756e-03 1.170981e-02 1.297401e-02 1.315034e-02 
     8.5                7.188541e-03 7.190816e-03 2.950050e-03 8.837578e-03 1.090709e-02 9.401785e-06 7.158440e-03 6.882943e-03 6.881289e-03 1.791018e-02 1.999392e-02 2.057821e-02 
     9.5                9.478403e-03 9.477447e-03 4.184514e-03 1.092213e-02 1.415862e-02 1.347619e-05 9.427439e-03 9.770400e-03 9.767210e-03 2.319477e-02 2.623623e-02 2.680011e-02 
    10.5                1.161592e-02 1.161431e-02 5.751724e-03 1.313570e-02 1.750422e-02 1.647940e-05 1.154324e-02 1.300453e-02 1.300198e-02 2.880310e-02 3.223431e-02 3.305955e-02 
    11.5                1.369524e-02 1.368914e-02 7.347133e-03 1.517461e-02 2.041160e-02 1.929399e-05 1.360065e-02 1.612471e-02 1.611941e-02 3.389886e-02 3.780449e-02 3.915970e-02 
    12.5                1.505107e-02 1.504158e-02 8.246139e-03 1.687814e-02 2.237554e-02 2.132161e-05 1.493335e-02 1.879805e-02 1.879301e-02 3.741484e-02 4.154714e-02 4.336166e-02 
    13.5                1.683428e-02 1.683051e-02 8.687740e-03 1.967321e-02 2.508264e-02 2.283239e-05 1.670105e-02 2.197521e-02 2.196869e-02 4.186800e-02 4.648853e-02 4.871204e-02 
    14.5                1.864622e-02 1.863900e-02 8.800512e-03 2.235368e-02 2.719918e-02 2.516836e-05 1.848693e-02 2.506815e-02 2.506154e-02 4.550024e-02 5.109568e-02 5.380564e-02 
    15.5                2.028924e-02 2.028016e-02 8.340638e-03 2.476821e-02 2.887840e-02 2.718685e-05 2.010825e-02 2.796442e-02 2.795672e-02 4.813198e-02 5.514687e-02 5.798582e-02 
    16.5                2.174369e-02 2.173561e-02 7.998618e-03 2.701612e-02 3.042682e-02 2.858499e-05 2.154422e-02 3.046006e-02 3.045035e-02 5.055951e-02 5.872182e-02 6.179729e-02 
    17.5                2.307163e-02 2.306235e-02 7.519862e-03 2.935484e-02 3.170196e-02 3.012667e-05 2.285245e-02 3.302945e-02 3.302013e-02 5.277742e-02 6.190584e-02 6.539584e-02 
    18.5                2.418920e-02 2.417575e-02 6.789028e-03 3.111032e-02 3.249866e-02 3.128608e-05 2.395228e-02 3.499441e-02 3.498279e-02 5.396719e-02 6.439620e-02 6.800731e-02 
    19.5                2.490183e-02 2.489062e-02 6.220022e-03 3.243756e-02 3.310085e-02 3.186492e-05 2.465666e-02 3.638261e-02 3.637195e-02 5.479250e-02 6.605640e-02 6.975570e-02 
    20.5                2.556449e-02 2.555700e-02 5.661973e-03 3.377379e-02 3.356375e-02 3.219002e-05 2.531251e-02 3.758306e-02 3.757128e-02 5.547271e-02 6.752911e-02 7.143754e-02 
    21.5                2.644426e-02 2.643472e-02 4.970110e-03 3.550517e-02 3.442077e-02 3.266748e-05 2.617846e-02 3.915962e-02 3.914735e-02 5.668439e-02 6.962747e-02 7.366778e-02 
    22.5                2.722276e-02 2.721243e-02 4.618739e-03 3.669539e-02 3.501130e-02 3.326361e-05 2.694898e-02 4.037304e-02 4.036089e-02 5.755412e-02 7.139588e-02 7.559608e-02 
    23.5                2.751048e-02 2.749815e-02 4.051324e-03 3.733679e-02 3.496360e-02 3.332306e-05 2.723162e-02 4.077843e-02 4.076654e-02 5.735004e-02 7.185658e-02 7.612877e-02 
    24.5                2.763131e-02 2.761935e-02 3.529679e-03 3.777041e-02 3.485089e-02 3.307491e-05 2.735173e-02 4.092887e-02 4.091647e-02 5.695391e-02 7.199165e-02 7.627227e-02 
    25.5                2.758344e-02 2.757035e-02 3.061550e-03 3.786045e-02 3.444151e-02 3.256303e-05 2.730502e-02 4.076268e-02 4.074947e-02 5.611442e-02 7.162028e-02 7.592842e-02 
    26.5                2.698757e-02 2.697295e-02 2.594034e-03 3.708761e-02 3.338342e-02 3.186082e-05 2.671570e-02 3.973610e-02 3.972395e-02 5.420765e-02 6.987732e-02 7.406091e-02 
    27.5                2.624625e-02 2.623431e-02 2.214652e-03 3.631239e-02 3.237521e-02 3.047646e-05 2.598444e-02 3.857283e-02 3.856119e-02 5.239212e-02 6.788932e-02 7.198245e-02 
    28.5                2.542996e-02 2.541552e-02 1.864342e-03 3.522269e-02 3.115770e-02 2.936432e-05 2.517652e-02 3.718536e-02 3.717343e-02 5.026176e-02 6.563884e-02 6.958794e-02 
    29.5                2.429531e-02 2.428155e-02 1.571805e-03 3.369248e-02 2.960449e-02 2.789162e-05 2.405537e-02 3.535507e-02 3.534337e-02 4.761358e-02 6.260019e-02 6.637262e-02 
    30.5                2.301935e-02 2.300640e-02 1.289484e-03 3.196728e-02 2.789856e-02 2.627599e-05 2.279524e-02 3.330627e-02 3.329643e-02 4.473532e-02 5.921402e-02 6.279253e-02 
    31.5                2.153666e-02 2.152273e-02 1.034530e-03 2.989999e-02 2.594408e-02 2.450092e-05 2.132824e-02 3.093206e-02 3.092259e-02 4.146424e-02 5.529625e-02 5.863507e-02 
    32.5                1.984066e-02 1.982734e-02 8.161073e-04 2.748185e-02 2.373099e-02 2.262366e-05 1.965220e-02 2.823378e-02 2.822488e-02 3.782147e-02 5.083150e-02 5.389157e-02 
    33.5                1.789619e-02 1.788303e-02 6.452428e-04 2.472473e-02 2.127694e-02 2.048603e-05 1.772808e-02 2.523881e-02 2.523032e-02 3.383092e-02 4.576691e-02 4.851320e-02 
    34.5                1.593370e-02 1.592048e-02 5.102863e-04 2.195954e-02 1.883773e-02 1.822912e-05 1.578561e-02 2.226883e-02 2.226157e-02 2.988739e-02 4.067692e-02 4.311660e-02 
    35.5                1.394706e-02 1.393566e-02 3.861350e-04 1.919362e-02 1.641243e-02 1.600555e-05 1.381997e-02 1.930428e-02 1.929760e-02 2.597701e-02 3.555928e-02 3.769240e-02 
    36.5                1.204306e-02 1.203230e-02 2.812224e-04 1.650473e-02 1.407018e-02 1.385065e-05 1.193539e-02 1.647574e-02 1.647085e-02 2.221844e-02 3.063443e-02 3.246575e-02 
    37.5                1.016952e-02 1.015937e-02 2.014180e-04 1.388529e-02 1.180820e-02 1.177197e-05 1.007958e-02 1.375411e-02 1.375003e-02 1.860844e-02 2.582198e-02 2.736116e-02 
    38.5                8.359495e-03 8.350306e-03 1.405328e-04 1.130134e-02 9.590435e-03 9.791028e-06 8.287242e-03 1.113840e-02 1.113458e-02 1.508733e-02 2.115044e-02 2.240065e-02 
    39.5                6.583537e-03 6.575169e-03 9.241888e-05 8.794965e-03 7.449932e-03 7.856968e-06 6.527634e-03 8.627434e-03 8.624604e-03 1.170035e-02 1.659112e-02 1.756059e-02 
    40.5                4.940743e-03 4.933439e-03 5.824169e-05 6.507461e-03 5.504419e-03 6.014131e-06 4.899481e-03 6.363649e-03 6.361609e-03 8.632062e-03 1.239621e-02 1.311092e-02 
    41.5                3.528294e-03 3.522648e-03 3.476717e-05 4.594462e-03 3.881396e-03 4.376451e-06 3.499369e-03 4.471233e-03 4.469531e-03 6.078443e-03 8.821452e-03 9.324731e-03 
    42.5                2.402890e-03 2.398373e-03 1.950059e-05 3.069675e-03 2.590756e-03 3.053339e-06 2.383451e-03 2.983563e-03 2.982839e-03 4.052450e-03 5.973578e-03 6.307906e-03 
    43.5                1.495772e-03 1.492369e-03 1.055809e-05 1.840708e-03 1.552688e-03 1.990397e-06 1.483824e-03 1.807285e-03 1.806569e-03 2.426752e-03 3.680610e-03 3.878994e-03 
    44.5                8.164189e-04 8.139751e-04 4.996429e-06 9.589637e-04 8.085381e-04 1.151752e-06 8.097745e-04 9.563266e-04 9.559668e-04 1.262860e-03 1.984051e-03 2.085955e-03 
    45.5                3.677354e-04 3.665207e-04 2.046099e-06 3.985811e-04 3.360484e-04 5.676993e-07 3.649103e-04 4.132127e-04 4.129519e-04 5.247351e-04 8.760928e-04 9.173214e-04 
    46.5                1.205352e-04 1.199755e-04 6.833513e-07 1.171892e-04 9.883163e-05 2.143001e-07 1.195357e-04 1.290725e-04 1.290985e-04 1.543809e-04 2.805833e-04 2.923276e-04 
    47.5                2.757802e-05 2.747185e-05 1.590848e-07 2.300660e-05 1.941126e-05 5.656112e-08 2.738760e-05 2.788276e-05 2.787267e-05 3.034456e-05 6.232262e-05 6.449533e-05 
    48.5                3.542816e-06 3.526900e-06 2.314287e-08 2.098807e-06 1.774867e-06 8.876839e-09 3.518564e-06 3.243532e-06 3.244220e-06 2.782998e-06 7.573063e-06 7.735050e-06 
    49.5                8.302238e-08 8.344332e-08 9.068034e-10 1.862455e-08 1.589912e-08 3.598480e-10 8.323532e-08 6.796267e-08 6.759853e-08 2.574159e-08 1.678235e-07 1.683576e-07 
    50.5                0.000000e+00 0.000000e+00 0.000000e+00 0.000000e+00 0.000000e+00 0.000000e+00 0.000000e+00 0.000000e+00 0.000000e+00 0.000000e+00 0.000000e+00 0.000000e+00 
    51.5                0.000000e+00 0.000000e+00 0.000000e+00 0.000000e+00 0.000000e+00 0.000000e+00 0.000000e+00 0.000000e+00 0.000000e+00 0.000000e+00 0.000000e+00 0.000000e+00 
    52.5                0.000000e+00 0.000000e+00 0.000000e+00 0.000000e+00 0.000000e+00 0.000000e+00 0.000000e+00 0.000000e+00 0.000000e+00 0.000000e+00 0.000000e+00 0.000000e+00 
    53.5                0.000000e+00 0.000000e+00 0.000000e+00 0.000000e+00 0.000000e+00 0.000000e+00 0.000000e+00 0.000000e+00 0.000000e+00 0.000000e+00 0.000000e+00 0.000000e+00 
    54.5                0.000000e+00 0.000000e+00 0.000000e+00 0.000000e+00 0.000000e+00 0.000000e+00 0.000000e+00 0.000000e+00 0.000000e+00 0.000000e+00 0.000000e+00 0.000000e+00 
    55.5                0.000000e+00 0.000000e+00 0.000000e+00 0.000000e+00 0.000000e+00 0.000000e+00 0.000000e+00 0.000000e+00 0.000000e+00 0.000000e+00 0.000000e+00 0.000000e+00 
    56.5                0.000000e+00 0.000000e+00 0.000000e+00 0.000000e+00 0.000000e+00 0.000000e+00 0.000000e+00 0.000000e+00 0.000000e+00 0.000000e+00 0.000000e+00 0.000000e+00 
    57.5                0.000000e+00 0.000000e+00 0.000000e+00 0.000000e+00 0.000000e+00 0.000000e+00 0.000000e+00 0.000000e+00 0.000000e+00 0.000000e+00 0.000000e+00 0.000000e+00 
    58.5                0.000000e+00 0.000000e+00 0.000000e+00 0.000000e+00 0.000000e+00 0.000000e+00 0.000000e+00 0.000000e+00 0.000000e+00 0.000000e+00 0.000000e+00 0.000000e+00 
    59.5                0.000000e+00 0.000000e+00 0.000000e+00 0.000000e+00 0.000000e+00 0.000000e+00 0.000000e+00 0.000000e+00 0.000000e+00 0.000000e+00 0.000000e+00 0.000000e+00 
    60.5                0.000000e+00 0.000000e+00 0.000000e+00 0.000000e+00 0.000000e+00 0.000000e+00 0.000000e+00 0.000000e+00 0.000000e+00 0.000000e+00 0.000000e+00 0.000000e+00 
    61.5                0.000000e+00 0.000000e+00 0.000000e+00 0.000000e+00 0.000000e+00 0.000000e+00 0.000000e+00 0.000000e+00 0.000000e+00 0.000000e+00 0.000000e+00 0.000000e+00 
    62.5                0.000000e+00 0.000000e+00 0.000000e+00 0.000000e+00 0.000000e+00 0.000000e+00 0.000000e+00 0.000000e+00 0.000000e+00 0.000000e+00 0.000000e+00 0.000000e+00 
    63.5                0.000000e+00 0.000000e+00 0.000000e+00 0.000000e+00 0.000000e+00 0.000000e+00 0.000000e+00 0.000000e+00 0.000000e+00 0.000000e+00 0.000000e+00 0.000000e+00 
    64.5                0.000000e+00 0.000000e+00 0.000000e+00 0.000000e+00 0.000000e+00 0.000000e+00 0.000000e+00 0.000000e+00 0.000000e+00 0.000000e+00 0.000000e+00 0.000000e+00 
    65.5                0.000000e+00 0.000000e+00 0.000000e+00 0.000000e+00 0.000000e+00 0.000000e+00 0.000000e+00 0.000000e+00 0.000000e+00 0.000000e+00 0.000000e+00 0.000000e+00 
    66.5                0.000000e+00 0.000000e+00 0.000000e+00 0.000000e+00 0.000000e+00 0.000000e+00 0.000000e+00 0.000000e+00 0.000000e+00 0.000000e+00 0.000000e+00 0.000000e+00 
    67.5                0.000000e+00 0.000000e+00 0.000000e+00 0.000000e+00 0.000000e+00 0.000000e+00 0.000000e+00 0.000000e+00 0.000000e+00 0.000000e+00 0.000000e+00 0.000000e+00 
    68.5                0.000000e+00 0.000000e+00 0.000000e+00 0.000000e+00 0.000000e+00 0.000000e+00 0.000000e+00 0.000000e+00 0.000000e+00 0.000000e+00 0.000000e+00 0.000000e+00 
    69.5                0.000000e+00 0.000000e+00 0.000000e+00 0.000000e+00 0.000000e+00 0.000000e+00 0.000000e+00 0.000000e+00 0.000000e+00 0.000000e+00 0.000000e+00 0.000000e+00 
    70.5                0.000000e+00 0.000000e+00 0.000000e+00 0.000000e+00 0.000000e+00 0.000000e+00 0.000000e+00 0.000000e+00 0.000000e+00 0.000000e+00 0.000000e+00 0.000000e+00 
    71.5                0.000000e+00 0.000000e+00 0.000000e+00 0.000000e+00 0.000000e+00 0.000000e+00 0.000000e+00 0.000000e+00 0.000000e+00 0.000000e+00 0.000000e+00 0.000000e+00 
    72.5                0.000000e+00 0.000000e+00 0.000000e+00 0.000000e+00 0.000000e+00 0.000000e+00 0.000000e+00 0.000000e+00 0.000000e+00 0.000000e+00 0.000000e+00 0.000000e+00 
    73.5                0.000000e+00 0.000000e+00 0.000000e+00 0.000000e+00 0.000000e+00 0.000000e+00 0.000000e+00 0.000000e+00 0.000000e+00 0.000000e+00 0.000000e+00 0.000000e+00 
    74.5                0.000000e+00 0.000000e+00 0.000000e+00 0.000000e+00 0.000000e+00 0.000000e+00 0.000000e+00 0.000000e+00 0.000000e+00 0.000000e+00 0.000000e+00 0.000000e+00 
    75.5                0.000000e+00 0.000000e+00 0.000000e+00 0.000000e+00 0.000000e+00 0.000000e+00 0.000000e+00 0.000000e+00 0.000000e+00 0.000000e+00 0.000000e+00 0.000000e+00 
    76.5                0.000000e+00 0.000000e+00 0.000000e+00 0.000000e+00 0.000000e+00 0.000000e+00 0.000000e+00 0.000000e+00 0.000000e+00 0.000000e+00 0.000000e+00 0.000000e+00 
    77.5                0.000000e+00 0.000000e+00 0.000000e+00 0.000000e+00 0.000000e+00 0.000000e+00 0.000000e+00 0.000000e+00 0.000000e+00 0.000000e+00 0.000000e+00 0.000000e+00 
    78.5                0.000000e+00 0.000000e+00 0.000000e+00 0.000000e+00 0.000000e+00 0.000000e+00 0.000000e+00 0.000000e+00 0.000000e+00 0.000000e+00 0.000000e+00 0.000000e+00 
    79.5                0.000000e+00 0.000000e+00 0.000000e+00 0.000000e+00 0.000000e+00 0.000000e+00 0.000000e+00 0.000000e+00 0.000000e+00 0.000000e+00 0.000000e+00 0.000000e+00 


