# 80 rows of flux data
# 12 columns of flux data
# 
# total cross-sectional flux  1.041945e+00 /m^2/yr
#
#                       +x vernal eq.           -x           +y           -y +z eclip. N. -z eclip. S.        Earth          Sun     anti-Sun      rot (x)      rot (y)      rot (z) 
# average speed (km/s)         37.64        37.74        37.69        37.72        46.18        31.11        39.36        27.89        28.15        33.98        33.98        37.70 
# total flux (#/m2/yr)  2.279396e-01 2.459989e-01 2.346401e-01 2.386927e-01 3.001002e-02 6.121373e-01 3.104096e-01 1.674132e-01 1.694814e-01 8.627446e-01 8.630157e-01 7.439535e-01 
# velocity (km/s)
     0.5                0.000000e+00 0.000000e+00 0.000000e+00 0.000000e+00 0.000000e+00 0.000000e+00 0.000000e+00 0.000000e+00 0.000000e+00 0.000000e+00 0.000000e+00 0.000000e+00 
     1.5                0.000000e+00 0.000000e+00 0.000000e+00 0.000000e+00 0.000000e+00 0.000000e+00 0.000000e+00 0.000000e+00 0.000000e+00 0.000000e+00 0.000000e+00 0.000000e+00 
     2.5                9.349493e-05 6.996826e-05 7.970369e-05 8.198898e-05 1.098128e-05 1.456077e-04 1.246452e-04 8.225200e-05 8.321333e-05 2.488911e-04 2.501720e-04 2.551615e-04 
     3.5                4.614111e-04 4.037086e-04 4.374199e-04 4.293379e-04 6.656255e-05 6.958442e-04 6.616818e-04 4.303256e-04 4.499800e-04 1.271300e-03 1.271209e-03 1.359637e-03 
     4.5                9.129476e-04 9.156297e-04 9.155946e-04 9.118803e-04 1.404434e-04 1.527414e-03 1.370005e-03 9.610630e-04 9.863657e-04 2.730238e-03 2.730690e-03 2.870764e-03 
     5.5                1.394465e-03 1.467771e-03 1.430935e-03 1.439255e-03 2.057062e-04 2.589333e-03 2.092649e-03 1.590210e-03 1.612399e-03 4.421310e-03 4.418231e-03 4.502374e-03 
     6.5                1.846613e-03 2.040187e-03 1.930729e-03 1.964187e-03 2.668782e-04 3.928158e-03 2.777335e-03 2.236260e-03 2.247092e-03 6.323418e-03 6.320382e-03 6.112194e-03 
     7.5                2.246788e-03 2.562959e-03 2.378273e-03 2.437288e-03 3.106949e-04 5.386122e-03 3.356800e-03 2.825630e-03 2.824874e-03 8.230205e-03 8.225389e-03 7.558836e-03 
     8.5                2.632957e-03 3.017373e-03 2.775062e-03 2.852329e-03 3.390073e-04 6.830246e-03 3.852587e-03 3.364448e-03 3.357454e-03 1.003665e-02 1.005214e-02 8.856547e-03 
     9.5                2.978572e-03 3.349075e-03 3.122586e-03 3.196444e-03 3.632486e-04 8.235813e-03 4.264930e-03 3.840115e-03 3.836298e-03 1.171955e-02 1.172925e-02 9.933232e-03 
    10.5                3.294119e-03 3.640448e-03 3.434813e-03 3.507288e-03 3.760877e-04 9.637790e-03 4.588215e-03 4.284527e-03 4.289614e-03 1.333790e-02 1.333974e-02 1.089954e-02 
    11.5                3.598482e-03 3.948174e-03 3.728974e-03 3.800490e-03 3.854920e-04 1.128931e-02 4.913855e-03 4.739837e-03 4.751148e-03 1.516029e-02 1.517270e-02 1.184054e-02 
    12.5                3.741475e-03 4.236566e-03 3.935233e-03 4.041638e-03 3.782276e-04 1.255884e-02 5.111459e-03 5.059339e-03 5.073063e-03 1.652233e-02 1.652615e-02 1.253042e-02 
    13.5                3.801575e-03 4.373504e-03 3.999953e-03 4.125676e-03 3.665044e-04 1.366950e-02 5.162469e-03 5.190755e-03 5.205691e-03 1.759482e-02 1.762349e-02 1.280117e-02 
    14.5                3.864656e-03 4.335727e-03 4.037150e-03 4.140383e-03 3.570597e-04 1.429690e-02 5.152431e-03 5.242597e-03 5.260917e-03 1.816641e-02 1.818135e-02 1.286258e-02 
    15.5                3.972781e-03 4.463107e-03 4.142495e-03 4.249752e-03 3.447341e-04 1.549289e-02 5.221725e-03 5.356810e-03 5.374281e-03 1.932624e-02 1.934304e-02 1.321470e-02 
    16.5                3.976974e-03 4.428621e-03 4.156114e-03 4.256609e-03 3.371207e-04 1.581043e-02 5.178055e-03 5.371158e-03 5.388055e-03 1.958988e-02 1.958966e-02 1.320850e-02 
    17.5                3.979905e-03 4.479068e-03 4.161095e-03 4.271746e-03 3.218145e-04 1.629739e-02 5.153434e-03 5.338291e-03 5.355163e-03 2.000265e-02 2.001446e-02 1.326480e-02 
    18.5                4.035226e-03 4.441419e-03 4.186994e-03 4.277560e-03 3.009352e-04 1.681623e-02 5.109712e-03 5.296443e-03 5.313056e-03 2.043796e-02 2.044121e-02 1.330557e-02 
    19.5                4.023799e-03 4.429713e-03 4.171005e-03 4.259188e-03 2.862224e-04 1.696004e-02 5.054800e-03 5.183073e-03 5.200527e-03 2.048565e-02 2.049253e-02 1.326330e-02 
    20.5                3.924518e-03 4.346972e-03 4.091458e-03 4.185081e-03 2.686869e-04 1.678560e-02 4.889173e-03 4.996389e-03 5.012954e-03 2.017718e-02 2.017684e-02 1.299809e-02 
    21.5                3.949135e-03 4.251501e-03 4.061358e-03 4.129777e-03 2.554912e-04 1.692540e-02 4.812216e-03 4.856693e-03 4.872304e-03 2.021054e-02 2.021128e-02 1.287480e-02 
    22.5                3.899747e-03 4.299465e-03 4.064683e-03 4.153482e-03 2.405566e-04 1.722313e-02 4.778186e-03 4.733847e-03 4.748452e-03 2.043779e-02 2.042401e-02 1.289119e-02 
    23.5                3.700044e-03 4.132008e-03 3.838187e-03 3.935716e-03 2.190675e-04 1.631856e-02 4.491954e-03 4.433355e-03 4.446138e-03 1.932318e-02 1.935061e-02 1.225835e-02 
    24.5                3.630565e-03 3.855108e-03 3.719050e-03 3.768756e-03 1.992239e-04 1.565475e-02 4.290739e-03 4.167515e-03 4.179586e-03 1.850304e-02 1.850669e-02 1.175981e-02 
    25.5                3.525467e-03 3.766248e-03 3.628863e-03 3.683640e-03 1.889884e-04 1.531116e-02 4.152199e-03 3.942598e-03 3.954203e-03 1.805358e-02 1.804813e-02 1.146875e-02 
    26.5                3.451694e-03 3.670384e-03 3.536230e-03 3.585147e-03 1.819116e-04 1.475127e-02 4.041873e-03 3.734789e-03 3.746600e-03 1.740396e-02 1.740433e-02 1.118704e-02 
    27.5                3.306375e-03 3.633991e-03 3.424031e-03 3.498573e-03 1.680673e-04 1.418025e-02 3.894420e-03 3.528925e-03 3.539102e-03 1.671954e-02 1.672639e-02 1.088410e-02 
    28.5                3.208566e-03 3.466132e-03 3.303644e-03 3.362486e-03 1.496139e-04 1.357633e-02 3.707415e-03 3.265964e-03 3.275328e-03 1.598083e-02 1.598844e-02 1.047772e-02 
    29.5                2.994390e-03 3.320356e-03 3.124689e-03 3.197806e-03 1.291489e-04 1.286500e-02 3.482480e-03 2.959307e-03 2.967332e-03 1.510745e-02 1.510958e-02 9.925056e-03 
    30.5                2.888031e-03 3.105709e-03 2.952951e-03 3.002735e-03 1.136928e-04 1.227664e-02 3.254331e-03 2.741903e-03 2.748354e-03 1.435091e-02 1.436400e-02 9.384923e-03 
    31.5                2.884307e-03 2.983953e-03 2.925208e-03 2.948576e-03 1.003030e-04 1.191033e-02 3.173912e-03 2.576177e-03 2.582094e-03 1.392363e-02 1.391938e-02 9.225536e-03 
    32.5                2.786467e-03 2.920253e-03 2.794158e-03 2.825418e-03 9.030730e-05 1.118779e-02 3.042652e-03 2.362813e-03 2.368583e-03 1.311645e-02 1.314404e-02 8.897235e-03 
    33.5                2.818872e-03 2.873456e-03 2.783132e-03 2.794640e-03 8.585628e-05 1.081213e-02 3.016777e-03 2.182594e-03 2.188659e-03 1.272748e-02 1.277484e-02 8.851081e-03 
    34.5                2.788903e-03 2.952960e-03 2.812273e-03 2.850377e-03 7.603995e-05 1.089998e-02 3.023638e-03 2.096992e-03 2.101726e-03 1.281562e-02 1.285347e-02 8.959048e-03 
    35.5                2.708496e-03 2.807919e-03 2.719011e-03 2.742398e-03 7.259836e-05 1.003786e-02 2.893996e-03 1.959837e-03 1.964187e-03 1.192156e-02 1.194307e-02 8.620955e-03 
    36.5                2.711558e-03 2.712578e-03 2.758855e-03 2.758824e-03 7.839429e-05 9.785906e-03 2.897101e-03 1.830795e-03 1.836008e-03 1.171602e-02 1.167151e-02 8.592579e-03 
    37.5                2.659493e-03 2.951123e-03 2.801346e-03 2.867657e-03 7.679303e-05 9.894580e-03 2.952203e-03 1.774208e-03 1.778648e-03 1.189247e-02 1.186280e-02 8.861276e-03 
    38.5                2.743836e-03 3.054370e-03 2.838106e-03 2.912836e-03 8.922652e-05 9.660060e-03 3.046826e-03 1.702496e-03 1.708528e-03 1.174936e-02 1.176652e-02 9.072017e-03 
    39.5                2.828981e-03 3.111243e-03 2.928670e-03 2.992989e-03 9.687403e-05 9.580113e-03 3.148801e-03 1.652382e-03 1.658729e-03 1.178045e-02 1.178512e-02 9.314543e-03 
    40.5                2.957864e-03 2.924808e-03 2.984809e-03 2.978942e-03 8.891311e-05 9.396387e-03 3.102856e-03 1.584458e-03 1.590228e-03 1.163104e-02 1.158280e-02 9.302466e-03 
    41.5                3.188871e-03 3.027971e-03 3.180950e-03 3.146330e-03 1.054536e-04 9.414945e-03 3.336546e-03 1.565628e-03 1.573616e-03 1.188563e-02 1.181826e-02 9.846287e-03 
    42.5                3.236292e-03 3.273783e-03 3.238045e-03 3.247135e-03 1.341059e-04 9.148129e-03 3.525047e-03 1.559246e-03 1.569733e-03 1.179421e-02 1.181547e-02 1.020421e-02 
    43.5                3.324286e-03 3.239994e-03 3.241296e-03 3.219050e-03 1.457278e-04 8.703091e-03 3.521269e-03 1.512559e-03 1.524088e-03 1.143283e-02 1.149766e-02 1.022421e-02 
    44.5                3.671409e-03 3.461376e-03 3.553019e-03 3.507143e-03 2.083210e-04 9.043988e-03 3.934477e-03 1.563897e-03 1.578954e-03 1.215282e-02 1.219175e-02 1.114555e-02 
    45.5                3.627004e-03 3.869174e-03 3.632380e-03 3.686399e-03 2.234856e-04 9.079462e-03 4.065707e-03 1.570486e-03 1.585011e-03 1.235339e-02 1.247460e-02 1.162322e-02 
    46.5                3.744240e-03 3.789005e-03 3.692766e-03 3.709014e-03 2.549546e-04 8.819634e-03 4.187243e-03 1.535563e-03 1.552785e-03 1.223359e-02 1.234211e-02 1.172865e-02 
    47.5                3.958612e-03 3.866640e-03 3.932240e-03 3.916107e-03 3.414390e-04 8.672647e-03 4.575844e-03 1.554674e-03 1.580729e-03 1.253663e-02 1.252337e-02 1.231805e-02 
    48.5                4.305364e-03 4.221663e-03 4.173459e-03 4.156432e-03 5.187588e-04 8.511070e-03 5.226304e-03 1.602948e-03 1.641617e-03 1.291417e-02 1.304742e-02 1.323985e-02 
    49.5                4.873822e-03 4.454580e-03 4.646754e-03 4.555030e-03 6.749069e-04 8.696994e-03 5.895483e-03 1.670874e-03 1.719767e-03 1.381439e-02 1.390432e-02 1.455864e-02 
    50.5                5.524736e-03 4.787442e-03 5.269926e-03 5.112728e-03 8.829971e-04 8.871677e-03 6.881195e-03 1.758924e-03 1.823524e-03 1.498397e-02 1.493950e-02 1.624684e-02 
    51.5                6.104768e-03 5.478276e-03 5.949691e-03 5.811346e-03 1.133096e-03 8.940135e-03 8.256040e-03 1.836038e-03 1.924705e-03 1.630764e-02 1.617954e-02 1.834326e-02 
    52.5                6.120003e-03 6.105769e-03 6.240537e-03 6.247359e-03 1.283912e-03 8.600611e-03 9.043232e-03 1.882226e-03 1.985112e-03 1.678052e-02 1.658829e-02 1.942069e-02 
    53.5                5.979446e-03 6.497496e-03 6.264461e-03 6.386392e-03 1.350061e-03 8.105458e-03 9.392968e-03 1.901035e-03 2.010601e-03 1.664480e-02 1.650684e-02 1.973650e-02 
    54.5                5.885217e-03 6.489508e-03 6.127626e-03 6.270645e-03 1.371986e-03 7.585612e-03 9.429252e-03 1.882864e-03 1.994036e-03 1.610570e-02 1.608224e-02 1.945126e-02 
    55.5                5.997081e-03 6.358994e-03 6.025626e-03 6.109244e-03 1.379420e-03 7.180080e-03 9.326614e-03 1.856571e-03 1.966040e-03 1.563100e-02 1.579878e-02 1.922818e-02 
    56.5                5.837672e-03 6.114583e-03 5.950838e-03 6.013529e-03 1.403387e-03 6.761359e-03 9.281351e-03 1.813958e-03 1.922992e-03 1.522794e-02 1.521011e-02 1.878228e-02 
    57.5                5.297248e-03 5.870078e-03 5.560857e-03 5.690637e-03 1.356112e-03 6.066857e-03 8.783591e-03 1.724263e-03 1.827263e-03 1.414666e-02 1.408278e-02 1.760791e-02 
    58.5                4.956744e-03 5.542074e-03 5.179071e-03 5.315602e-03 1.317043e-03 5.385293e-03 8.370154e-03 1.593862e-03 1.693292e-03 1.305282e-02 1.305472e-02 1.648590e-02 
    59.5                4.788098e-03 5.257472e-03 4.928271e-03 5.035841e-03 1.305665e-03 4.885279e-03 8.104485e-03 1.463161e-03 1.560131e-03 1.227822e-02 1.234329e-02 1.570958e-02 
    60.5                4.375867e-03 5.012903e-03 4.604873e-03 4.750638e-03 1.240118e-03 4.361337e-03 7.681343e-03 1.304499e-03 1.396468e-03 1.139682e-02 1.142386e-02 1.472154e-02 
    61.5                3.845349e-03 4.585446e-03 4.110082e-03 4.274098e-03 1.157749e-03 3.634210e-03 7.097066e-03 1.138978e-03 1.225286e-03 1.008059e-02 1.011676e-02 1.321088e-02 
    62.5                3.242911e-03 4.058771e-03 3.528106e-03 3.711896e-03 9.996355e-04 2.966602e-03 6.144249e-03 9.708772e-04 1.045188e-03 8.606496e-03 8.649578e-03 1.141866e-02 
    63.5                2.563991e-03 3.357297e-03 2.905563e-03 3.082891e-03 8.430813e-04 2.293301e-03 5.102736e-03 7.978603e-04 8.597228e-04 7.028199e-03 6.974670e-03 9.348105e-03 
    64.5                2.075265e-03 2.762920e-03 2.333787e-03 2.485975e-03 6.945474e-04 1.781315e-03 4.183326e-03 6.304547e-04 6.810165e-04 5.629849e-03 5.646282e-03 7.587220e-03 
    65.5                1.595396e-03 2.151376e-03 1.847970e-03 1.972952e-03 5.511188e-04 1.307102e-03 3.343607e-03 4.733857e-04 5.140066e-04 4.403392e-03 4.341108e-03 5.944000e-03 
    66.5                1.160171e-03 1.696169e-03 1.389107e-03 1.510934e-03 4.163153e-04 9.289450e-04 2.566507e-03 3.377630e-04 3.687948e-04 3.309721e-03 3.269508e-03 4.521792e-03 
    67.5                7.486851e-04 1.228823e-03 9.547719e-04 1.062090e-03 2.833584e-04 5.966880e-04 1.791521e-03 2.186965e-04 2.402259e-04 2.272843e-03 2.237631e-03 3.137298e-03 
    68.5                4.268668e-04 8.322098e-04 5.881464e-04 6.774331e-04 1.728606e-04 3.425522e-04 1.143159e-03 1.250047e-04 1.386277e-04 1.408317e-03 1.402331e-03 1.983031e-03 
    69.5                1.912550e-04 5.073027e-04 3.127397e-04 3.830702e-04 8.923988e-05 1.696839e-04 6.294209e-04 6.041229e-05 6.782668e-05 7.638699e-04 7.646618e-04 1.094418e-03 
    70.5                5.878757e-05 2.514396e-04 1.248618e-04 1.672246e-04 3.443735e-05 6.397464e-05 2.670209e-04 2.273775e-05 2.581808e-05 3.170485e-04 3.324073e-04 4.730174e-04 
    71.5                1.015909e-05 8.759403e-05 3.313174e-05 5.046075e-05 8.291392e-06 1.627818e-05 7.187369e-05 5.730786e-06 6.532408e-06 8.967456e-05 1.022517e-04 1.424268e-04 
    72.5                4.024346e-07 1.594106e-05 4.103794e-06 7.687892e-06 9.222994e-07 1.849199e-06 9.946004e-06 8.074924e-07 9.153673e-07 1.246115e-05 1.668146e-05 2.211492e-05 
    73.5                1.004704e-11 1.265682e-06 1.624565e-07 4.558919e-07 3.316851e-08 5.630123e-08 4.916500e-07 3.347208e-08 3.864387e-08 6.347982e-07 1.270297e-06 1.481581e-06 
    74.5                0.000000e+00 0.000000e+00 0.000000e+00 0.000000e+00 0.000000e+00 0.000000e+00 0.000000e+00 0.000000e+00 0.000000e+00 0.000000e+00 0.000000e+00 0.000000e+00 
    75.5                0.000000e+00 0.000000e+00 0.000000e+00 0.000000e+00 0.000000e+00 0.000000e+00 0.000000e+00 0.000000e+00 0.000000e+00 0.000000e+00 0.000000e+00 0.000000e+00 
    76.5                0.000000e+00 0.000000e+00 0.000000e+00 0.000000e+00 0.000000e+00 0.000000e+00 0.000000e+00 0.000000e+00 0.000000e+00 0.000000e+00 0.000000e+00 0.000000e+00 
    77.5                0.000000e+00 0.000000e+00 0.000000e+00 0.000000e+00 0.000000e+00 0.000000e+00 0.000000e+00 0.000000e+00 0.000000e+00 0.000000e+00 0.000000e+00 0.000000e+00 
    78.5                0.000000e+00 0.000000e+00 0.000000e+00 0.000000e+00 0.000000e+00 0.000000e+00 0.000000e+00 0.000000e+00 0.000000e+00 0.000000e+00 0.000000e+00 0.000000e+00 
    79.5                0.000000e+00 0.000000e+00 0.000000e+00 0.000000e+00 0.000000e+00 0.000000e+00 0.000000e+00 0.000000e+00 0.000000e+00 0.000000e+00 0.000000e+00 0.000000e+00 


