# 80 rows of flux data
# 12 columns of flux data
# 
# total cross-sectional flux  2.023933e+00 /m^2/yr
#
#                             +x ram      -x wake      +y port -y starboard    +z zenith     -z nadir        Earth          Sun     anti-Sun      rot (x)      rot (y)      rot (z) 
# average speed (km/s)         23.99        23.99        22.60        17.75        23.82        23.58        23.98        24.29        24.29        23.19        23.91        23.48 
# total flux (#/m2/yr)  6.310303e-01 6.305349e-01 3.906094e-01 1.229735e-01 1.154343e+00 5.107560e-04 6.242125e-01 8.859354e-01 8.856186e-01 1.343368e+00 1.906920e+00 1.458006e+00 
# velocity (km/s)
     0.5                0.000000e+00 0.000000e+00 0.000000e+00 0.000000e+00 0.000000e+00 0.000000e+00 0.000000e+00 0.000000e+00 0.000000e+00 0.000000e+00 0.000000e+00 0.000000e+00 
     1.5                0.000000e+00 0.000000e+00 0.000000e+00 0.000000e+00 0.000000e+00 0.000000e+00 0.000000e+00 0.000000e+00 0.000000e+00 0.000000e+00 0.000000e+00 0.000000e+00 
     2.5                9.165255e-07 9.602190e-07 1.207990e-06 5.931658e-08 5.682067e-06 0.000000e+00 9.517628e-07 7.261246e-07 7.124573e-07 5.865171e-06 6.124549e-06 2.468997e-06 
     3.5                7.478639e-05 7.607422e-05 5.617547e-05 1.540413e-05 1.948571e-04 1.753914e-08 7.565471e-05 5.691917e-05 5.684172e-05 2.157383e-04 2.700221e-04 1.815067e-04 
     4.5                4.104610e-04 4.132781e-04 3.419344e-04 1.351781e-04 9.591055e-04 1.877314e-07 4.106664e-04 3.270161e-04 3.265499e-04 1.139113e-03 1.398001e-03 1.038524e-03 
     5.5                1.313980e-03 1.318501e-03 1.102749e-03 5.422596e-04 2.718003e-03 8.182164e-07 1.311149e-03 1.144301e-03 1.142631e-03 3.431280e-03 4.204560e-03 3.384271e-03 
     6.5                2.596838e-03 2.599325e-03 2.178224e-03 1.162594e-03 5.157429e-03 1.929773e-06 2.584744e-03 2.360831e-03 2.358684e-03 6.680711e-03 8.156315e-03 6.721629e-03 
     7.5                4.606135e-03 4.610438e-03 3.934972e-03 2.153116e-03 9.193060e-03 3.518909e-06 4.585323e-03 4.305161e-03 4.301869e-03 1.202497e-02 1.449313e-02 1.205410e-02 
     8.5                7.175585e-03 7.177886e-03 5.870062e-03 3.220666e-03 1.375811e-02 5.837111e-06 7.137474e-03 6.883126e-03 6.880899e-03 1.796719e-02 2.214562e-02 1.846221e-02 
     9.5                9.464361e-03 9.461927e-03 7.824105e-03 4.556011e-03 1.758239e-02 8.367699e-06 9.403337e-03 9.786409e-03 9.783175e-03 2.351426e-02 2.881380e-02 2.459674e-02 
    10.5                1.148023e-02 1.147548e-02 9.598775e-03 5.783985e-03 2.141681e-02 1.042987e-05 1.139448e-02 1.296977e-02 1.296619e-02 2.893251e-02 3.501721e-02 3.012034e-02 
    11.5                1.343642e-02 1.342432e-02 1.097664e-02 6.843860e-03 2.464100e-02 1.279016e-05 1.332392e-02 1.597408e-02 1.596860e-02 3.345541e-02 4.065633e-02 3.514260e-02 
    12.5                1.466699e-02 1.465424e-02 1.189975e-02 7.351603e-03 2.701409e-02 1.410793e-05 1.453254e-02 1.849870e-02 1.849270e-02 3.652645e-02 4.449042e-02 3.833883e-02 
    13.5                1.644912e-02 1.644196e-02 1.308385e-02 7.766722e-03 3.065060e-02 1.541123e-05 1.629676e-02 2.159199e-02 2.158367e-02 4.075705e-02 5.013066e-02 4.253597e-02 
    14.5                1.818143e-02 1.817041e-02 1.389222e-02 7.840083e-03 3.380993e-02 1.689016e-05 1.800111e-02 2.454758e-02 2.454027e-02 4.406321e-02 5.536826e-02 4.613745e-02 
    15.5                1.981091e-02 1.979630e-02 1.460221e-02 7.681604e-03 3.670036e-02 1.793460e-05 1.960476e-02 2.741581e-02 2.740574e-02 4.688541e-02 6.021901e-02 4.941155e-02 
    16.5                2.124812e-02 2.123498e-02 1.518459e-02 7.472195e-03 3.929769e-02 1.888764e-05 2.102285e-02 2.985712e-02 2.984656e-02 4.936707e-02 6.453238e-02 5.219623e-02 
    17.5                2.253430e-02 2.252149e-02 1.564111e-02 6.988248e-03 4.178060e-02 1.937817e-05 2.228850e-02 3.234884e-02 3.233800e-02 5.142487e-02 6.852314e-02 5.445602e-02 
    18.5                2.364940e-02 2.363008e-02 1.589870e-02 6.506215e-03 4.358695e-02 1.982395e-05 2.338179e-02 3.431343e-02 3.430071e-02 5.277639e-02 7.170465e-02 5.628761e-02 
    19.5                2.436276e-02 2.434722e-02 1.604957e-02 6.120745e-03 4.493510e-02 2.015098e-05 2.408724e-02 3.571272e-02 3.570053e-02 5.375912e-02 7.390486e-02 5.743015e-02 
    20.5                2.498274e-02 2.497101e-02 1.602778e-02 5.548738e-03 4.615336e-02 2.020147e-05 2.469891e-02 3.687441e-02 3.686129e-02 5.439390e-02 7.583728e-02 5.821163e-02 
    21.5                2.591395e-02 2.590104e-02 1.632688e-02 5.044809e-03 4.799985e-02 2.041020e-05 2.561512e-02 3.851435e-02 3.850095e-02 5.580494e-02 7.874748e-02 5.976627e-02 
    22.5                2.666960e-02 2.665310e-02 1.639548e-02 4.723764e-03 4.917273e-02 2.089851e-05 2.635893e-02 3.970284e-02 3.968929e-02 5.665585e-02 8.087463e-02 6.101084e-02 
    23.5                2.694038e-02 2.692302e-02 1.620985e-02 4.173854e-03 4.959377e-02 2.091958e-05 2.662468e-02 4.010448e-02 4.009101e-02 5.650427e-02 8.163633e-02 6.105898e-02 
    24.5                2.706567e-02 2.704848e-02 1.596993e-02 3.695117e-03 4.981787e-02 2.079176e-05 2.674842e-02 4.028338e-02 4.026865e-02 5.622017e-02 8.200975e-02 6.090817e-02 
    25.5                2.701822e-02 2.700009e-02 1.557014e-02 3.189531e-03 4.957766e-02 2.062151e-05 2.670199e-02 4.012681e-02 4.011253e-02 5.540937e-02 8.174985e-02 6.032534e-02 
    26.5                2.644595e-02 2.642509e-02 1.494353e-02 2.761742e-03 4.832217e-02 2.023928e-05 2.613536e-02 3.914137e-02 3.912764e-02 5.362059e-02 7.987148e-02 5.872766e-02 
    27.5                2.572376e-02 2.570502e-02 1.431645e-02 2.350522e-03 4.708266e-02 1.949120e-05 2.542316e-02 3.801026e-02 3.799739e-02 5.186239e-02 7.774598e-02 5.684707e-02 
    28.5                2.493963e-02 2.491979e-02 1.365090e-02 2.014326e-03 4.549532e-02 1.887037e-05 2.464943e-02 3.666808e-02 3.665464e-02 4.981842e-02 7.525666e-02 5.488333e-02 
    29.5                2.382723e-02 2.380755e-02 1.283773e-02 1.678247e-03 4.337525e-02 1.801159e-05 2.355129e-02 3.487020e-02 3.485735e-02 4.722451e-02 7.183582e-02 5.221611e-02 
    30.5                2.257986e-02 2.256049e-02 1.197788e-02 1.365733e-03 4.101674e-02 1.705336e-05 2.232058e-02 3.285683e-02 3.284633e-02 4.439680e-02 6.800987e-02 4.929216e-02 
    31.5                2.112790e-02 2.110769e-02 1.103334e-02 1.086529e-03 3.825870e-02 1.598347e-05 2.088614e-02 3.052264e-02 3.051116e-02 4.118632e-02 6.354745e-02 4.595717e-02 
    32.5                1.947389e-02 1.945324e-02 1.001527e-02 8.549555e-04 3.508553e-02 1.478308e-05 1.925311e-02 2.787116e-02 2.786153e-02 3.759871e-02 5.843917e-02 4.222891e-02 
    33.5                1.757048e-02 1.755042e-02 8.926655e-03 6.730390e-04 3.151604e-02 1.341934e-05 1.737291e-02 2.492206e-02 2.491239e-02 3.365558e-02 5.262400e-02 3.801192e-02 
    34.5                1.564439e-02 1.562507e-02 7.856273e-03 5.174995e-04 2.794875e-02 1.197998e-05 1.547015e-02 2.199020e-02 2.198221e-02 2.974112e-02 4.677081e-02 3.376759e-02 
    35.5                1.369484e-02 1.367760e-02 6.803165e-03 3.803804e-04 2.439242e-02 1.052641e-05 1.354433e-02 1.906428e-02 1.905685e-02 2.586010e-02 4.089253e-02 2.949835e-02 
    36.5                1.182712e-02 1.181138e-02 5.801482e-03 2.706267e-04 2.094662e-02 9.138791e-06 1.169932e-02 1.627273e-02 1.626767e-02 2.212951e-02 3.522199e-02 2.541766e-02 
    37.5                9.989562e-03 9.974367e-03 4.847506e-03 1.891396e-04 1.760338e-02 7.761237e-06 9.881828e-03 1.358703e-02 1.358227e-02 1.854267e-02 2.968425e-02 2.142960e-02 
    38.5                8.212061e-03 8.197327e-03 3.922657e-03 1.276102e-04 1.431359e-02 6.458657e-06 8.123885e-03 1.100250e-02 1.099821e-02 1.503788e-02 2.428423e-02 1.757548e-02 
    39.5                6.466949e-03 6.453802e-03 3.037656e-03 8.134397e-05 1.113072e-02 5.189721e-06 6.398193e-03 8.521451e-03 8.518059e-03 1.166653e-02 1.902012e-02 1.380996e-02 
    40.5                4.852895e-03 4.841511e-03 2.238585e-03 4.941406e-05 8.230693e-03 3.979051e-06 4.801600e-03 6.284636e-03 6.282224e-03 8.609659e-03 1.418399e-02 1.034036e-02 
    41.5                3.464788e-03 3.456413e-03 1.574880e-03 2.813092e-05 5.808138e-03 2.897565e-06 3.428939e-03 4.414906e-03 4.412982e-03 6.064294e-03 1.007784e-02 7.370186e-03 
    42.5                2.359655e-03 2.352776e-03 1.049366e-03 1.518627e-05 3.879210e-03 2.017208e-06 2.335060e-03 2.945547e-03 2.944628e-03 4.044251e-03 6.806305e-03 5.007267e-03 
    43.5                1.467571e-03 1.462495e-03 6.281183e-04 7.651689e-06 2.325627e-03 1.313875e-06 1.452282e-03 1.782709e-03 1.781924e-03 2.422026e-03 4.169868e-03 3.102739e-03 
    44.5                8.004069e-04 7.966084e-04 3.267678e-04 3.344548e-06 1.211388e-03 7.582212e-07 7.915492e-04 9.424183e-04 9.419338e-04 1.260492e-03 2.232204e-03 1.684385e-03 
    45.5                3.600812e-04 3.579239e-04 1.357775e-04 1.272604e-06 5.034870e-04 3.731263e-07 3.559633e-04 4.065517e-04 4.061809e-04 5.237200e-04 9.740371e-04 7.526600e-04 
    46.5                1.176615e-04 1.167169e-04 3.994889e-05 3.909780e-07 1.480424e-04 1.421396e-07 1.161778e-04 1.265700e-04 1.265783e-04 1.540236e-04 3.070553e-04 2.440702e-04 
    47.5                2.682821e-05 2.659055e-05 7.851041e-06 8.225959e-08 2.906467e-05 3.753268e-08 2.648772e-05 2.723010e-05 2.720542e-05 3.025464e-05 6.675456e-05 5.513923e-05 
    48.5                3.423785e-06 3.388132e-06 7.207068e-07 1.106133e-08 2.653972e-06 5.843029e-09 3.378380e-06 3.137352e-06 3.143287e-06 2.770213e-06 7.775966e-06 6.920960e-06 
    49.5                7.871147e-08 7.722526e-08 6.658625e-09 3.696984e-10 2.378983e-08 2.213255e-10 7.703270e-08 6.335709e-08 6.379319e-08 2.536720e-08 1.589318e-07 1.561851e-07 
    50.5                0.000000e+00 0.000000e+00 0.000000e+00 0.000000e+00 0.000000e+00 0.000000e+00 0.000000e+00 0.000000e+00 0.000000e+00 0.000000e+00 0.000000e+00 0.000000e+00 
    51.5                0.000000e+00 0.000000e+00 0.000000e+00 0.000000e+00 0.000000e+00 0.000000e+00 0.000000e+00 0.000000e+00 0.000000e+00 0.000000e+00 0.000000e+00 0.000000e+00 
    52.5                0.000000e+00 0.000000e+00 0.000000e+00 0.000000e+00 0.000000e+00 0.000000e+00 0.000000e+00 0.000000e+00 0.000000e+00 0.000000e+00 0.000000e+00 0.000000e+00 
    53.5                0.000000e+00 0.000000e+00 0.000000e+00 0.000000e+00 0.000000e+00 0.000000e+00 0.000000e+00 0.000000e+00 0.000000e+00 0.000000e+00 0.000000e+00 0.000000e+00 
    54.5                0.000000e+00 0.000000e+00 0.000000e+00 0.000000e+00 0.000000e+00 0.000000e+00 0.000000e+00 0.000000e+00 0.000000e+00 0.000000e+00 0.000000e+00 0.000000e+00 
    55.5                0.000000e+00 0.000000e+00 0.000000e+00 0.000000e+00 0.000000e+00 0.000000e+00 0.000000e+00 0.000000e+00 0.000000e+00 0.000000e+00 0.000000e+00 0.000000e+00 
    56.5                0.000000e+00 0.000000e+00 0.000000e+00 0.000000e+00 0.000000e+00 0.000000e+00 0.000000e+00 0.000000e+00 0.000000e+00 0.000000e+00 0.000000e+00 0.000000e+00 
    57.5                0.000000e+00 0.000000e+00 0.000000e+00 0.000000e+00 0.000000e+00 0.000000e+00 0.000000e+00 0.000000e+00 0.000000e+00 0.000000e+00 0.000000e+00 0.000000e+00 
    58.5                0.000000e+00 0.000000e+00 0.000000e+00 0.000000e+00 0.000000e+00 0.000000e+00 0.000000e+00 0.000000e+00 0.000000e+00 0.000000e+00 0.000000e+00 0.000000e+00 
    59.5                0.000000e+00 0.000000e+00 0.000000e+00 0.000000e+00 0.000000e+00 0.000000e+00 0.000000e+00 0.000000e+00 0.000000e+00 0.000000e+00 0.000000e+00 0.000000e+00 
    60.5                0.000000e+00 0.000000e+00 0.000000e+00 0.000000e+00 0.000000e+00 0.000000e+00 0.000000e+00 0.000000e+00 0.000000e+00 0.000000e+00 0.000000e+00 0.000000e+00 
    61.5                0.000000e+00 0.000000e+00 0.000000e+00 0.000000e+00 0.000000e+00 0.000000e+00 0.000000e+00 0.000000e+00 0.000000e+00 0.000000e+00 0.000000e+00 0.000000e+00 
    62.5                0.000000e+00 0.000000e+00 0.000000e+00 0.000000e+00 0.000000e+00 0.000000e+00 0.000000e+00 0.000000e+00 0.000000e+00 0.000000e+00 0.000000e+00 0.000000e+00 
    63.5                0.000000e+00 0.000000e+00 0.000000e+00 0.000000e+00 0.000000e+00 0.000000e+00 0.000000e+00 0.000000e+00 0.000000e+00 0.000000e+00 0.000000e+00 0.000000e+00 
    64.5                0.000000e+00 0.000000e+00 0.000000e+00 0.000000e+00 0.000000e+00 0.000000e+00 0.000000e+00 0.000000e+00 0.000000e+00 0.000000e+00 0.000000e+00 0.000000e+00 
    65.5                0.000000e+00 0.000000e+00 0.000000e+00 0.000000e+00 0.000000e+00 0.000000e+00 0.000000e+00 0.000000e+00 0.000000e+00 0.000000e+00 0.000000e+00 0.000000e+00 
    66.5                0.000000e+00 0.000000e+00 0.000000e+00 0.000000e+00 0.000000e+00 0.000000e+00 0.000000e+00 0.000000e+00 0.000000e+00 0.000000e+00 0.000000e+00 0.000000e+00 
    67.5                0.000000e+00 0.000000e+00 0.000000e+00 0.000000e+00 0.000000e+00 0.000000e+00 0.000000e+00 0.000000e+00 0.000000e+00 0.000000e+00 0.000000e+00 0.000000e+00 
    68.5                0.000000e+00 0.000000e+00 0.000000e+00 0.000000e+00 0.000000e+00 0.000000e+00 0.000000e+00 0.000000e+00 0.000000e+00 0.000000e+00 0.000000e+00 0.000000e+00 
    69.5                0.000000e+00 0.000000e+00 0.000000e+00 0.000000e+00 0.000000e+00 0.000000e+00 0.000000e+00 0.000000e+00 0.000000e+00 0.000000e+00 0.000000e+00 0.000000e+00 
    70.5                0.000000e+00 0.000000e+00 0.000000e+00 0.000000e+00 0.000000e+00 0.000000e+00 0.000000e+00 0.000000e+00 0.000000e+00 0.000000e+00 0.000000e+00 0.000000e+00 
    71.5                0.000000e+00 0.000000e+00 0.000000e+00 0.000000e+00 0.000000e+00 0.000000e+00 0.000000e+00 0.000000e+00 0.000000e+00 0.000000e+00 0.000000e+00 0.000000e+00 
    72.5                0.000000e+00 0.000000e+00 0.000000e+00 0.000000e+00 0.000000e+00 0.000000e+00 0.000000e+00 0.000000e+00 0.000000e+00 0.000000e+00 0.000000e+00 0.000000e+00 
    73.5                0.000000e+00 0.000000e+00 0.000000e+00 0.000000e+00 0.000000e+00 0.000000e+00 0.000000e+00 0.000000e+00 0.000000e+00 0.000000e+00 0.000000e+00 0.000000e+00 
    74.5                0.000000e+00 0.000000e+00 0.000000e+00 0.000000e+00 0.000000e+00 0.000000e+00 0.000000e+00 0.000000e+00 0.000000e+00 0.000000e+00 0.000000e+00 0.000000e+00 
    75.5                0.000000e+00 0.000000e+00 0.000000e+00 0.000000e+00 0.000000e+00 0.000000e+00 0.000000e+00 0.000000e+00 0.000000e+00 0.000000e+00 0.000000e+00 0.000000e+00 
    76.5                0.000000e+00 0.000000e+00 0.000000e+00 0.000000e+00 0.000000e+00 0.000000e+00 0.000000e+00 0.000000e+00 0.000000e+00 0.000000e+00 0.000000e+00 0.000000e+00 
    77.5                0.000000e+00 0.000000e+00 0.000000e+00 0.000000e+00 0.000000e+00 0.000000e+00 0.000000e+00 0.000000e+00 0.000000e+00 0.000000e+00 0.000000e+00 0.000000e+00 
    78.5                0.000000e+00 0.000000e+00 0.000000e+00 0.000000e+00 0.000000e+00 0.000000e+00 0.000000e+00 0.000000e+00 0.000000e+00 0.000000e+00 0.000000e+00 0.000000e+00 
    79.5                0.000000e+00 0.000000e+00 0.000000e+00 0.000000e+00 0.000000e+00 0.000000e+00 0.000000e+00 0.000000e+00 0.000000e+00 0.000000e+00 0.000000e+00 0.000000e+00 


