# 80 rows of flux data
# 12 columns of flux data
# 
# total cross-sectional flux  2.287276e+00 /m^2/yr
#
#                             +x ram      -x wake      +y port -y starboard    +z zenith     -z nadir        Earth          Sun     anti-Sun      rot (x)      rot (y)      rot (z) 
# average speed (km/s)         24.49        24.49        23.48        18.15        24.64        23.52        24.49        25.02        25.02        24.04        24.56        24.05 
# total flux (#/m2/yr)  6.959986e-01 6.953635e-01 4.476372e-01 1.280346e-01 1.350331e+00 5.093292e-04 6.888555e-01 9.975286e-01 9.977646e-01 1.553221e+00 2.159749e+00 1.612217e+00 
# velocity (km/s)
     0.5                0.000000e+00 0.000000e+00 0.000000e+00 0.000000e+00 0.000000e+00 0.000000e+00 0.000000e+00 0.000000e+00 0.000000e+00 0.000000e+00 0.000000e+00 0.000000e+00 
     1.5                0.000000e+00 0.000000e+00 0.000000e+00 0.000000e+00 0.000000e+00 0.000000e+00 0.000000e+00 0.000000e+00 0.000000e+00 0.000000e+00 0.000000e+00 0.000000e+00 
     2.5                3.062060e-08 3.858069e-08 0.000000e+00 9.969007e-09 2.056338e-09 1.771771e-10 3.049756e-08 3.007235e-08 2.396431e-08 1.040441e-08 6.925703e-08 6.999242e-08 
     3.5                3.123564e-05 3.148392e-05 4.941027e-06 9.861123e-06 1.506879e-05 5.784890e-08 3.111477e-05 1.763668e-05 1.760398e-05 2.469660e-05 6.582241e-05 6.645916e-05 
     4.5                2.203041e-04 2.217385e-04 8.743559e-05 6.946691e-05 2.600617e-04 2.908048e-07 2.194631e-04 1.298099e-04 1.294569e-04 3.397098e-04 5.620652e-04 4.898822e-04 
     5.5                8.472529e-04 8.532738e-04 4.360446e-04 3.169952e-04 1.149448e-03 9.874995e-07 8.439420e-04 5.570028e-04 5.558816e-04 1.526505e-03 2.270862e-03 1.961094e-03 
     6.5                2.188628e-03 2.193838e-03 1.431817e-03 8.553464e-04 3.667354e-03 2.078310e-06 2.179218e-03 1.693036e-03 1.692423e-03 4.735509e-03 6.358861e-03 5.268524e-03 
     7.5                3.873886e-03 3.881117e-03 2.734053e-03 1.662267e-03 6.793597e-03 3.781103e-06 3.855727e-03 3.302816e-03 3.302163e-03 8.874028e-03 1.149616e-02 9.569237e-03 
     8.5                6.456282e-03 6.461938e-03 4.707882e-03 2.723997e-03 1.146487e-02 5.978616e-06 6.424337e-03 5.713690e-03 5.715411e-03 1.494608e-02 1.925286e-02 1.605155e-02 
     9.5                9.553541e-03 9.556332e-03 7.078048e-03 3.936417e-03 1.746069e-02 8.495107e-06 9.502808e-03 8.854516e-03 8.856973e-03 2.254583e-02 2.883643e-02 2.374099e-02 
    10.5                1.221487e-02 1.220605e-02 9.691840e-03 5.416406e-03 2.352731e-02 1.052334e-05 1.214407e-02 1.248819e-02 1.249130e-02 3.052966e-02 3.778328e-02 3.101806e-02 
    11.5                1.447885e-02 1.447523e-02 1.175416e-02 6.851370e-03 2.780019e-02 1.277745e-05 1.438234e-02 1.627296e-02 1.627589e-02 3.662176e-02 4.472655e-02 3.734837e-02 
    12.5                1.627748e-02 1.626751e-02 1.342294e-02 7.658868e-03 3.187532e-02 1.410379e-05 1.615650e-02 1.975674e-02 1.976204e-02 4.180470e-02 5.075235e-02 4.223239e-02 
    13.5                1.754910e-02 1.753574e-02 1.440206e-02 8.170885e-03 3.429804e-02 1.543382e-05 1.740519e-02 2.252830e-02 2.253308e-02 4.496810e-02 5.467621e-02 4.554025e-02 
    14.5                1.942314e-02 1.941062e-02 1.544406e-02 8.441961e-03 3.744231e-02 1.681515e-05 1.925171e-02 2.579999e-02 2.580466e-02 4.857291e-02 6.011129e-02 4.977236e-02 
    15.5                2.106967e-02 2.105804e-02 1.615187e-02 8.201456e-03 4.062580e-02 1.776160e-05 2.087363e-02 2.885286e-02 2.885945e-02 5.159491e-02 6.523151e-02 5.300030e-02 
    16.5                2.277646e-02 2.275717e-02 1.700947e-02 8.011610e-03 4.405979e-02 1.872508e-05 2.255381e-02 3.197679e-02 3.198420e-02 5.500021e-02 7.059555e-02 5.645447e-02 
    17.5                2.407452e-02 2.406059e-02 1.748248e-02 7.543683e-03 4.652724e-02 1.926908e-05 2.383047e-02 3.445280e-02 3.446059e-02 5.707684e-02 7.459502e-02 5.878886e-02 
    18.5                2.532044e-02 2.530417e-02 1.775927e-02 6.951270e-03 4.877615e-02 1.972627e-05 2.505490e-02 3.689810e-02 3.690553e-02 5.875334e-02 7.833733e-02 6.077623e-02 
    19.5                2.636693e-02 2.634660e-02 1.807019e-02 6.522893e-03 5.094861e-02 2.006702e-05 2.608223e-02 3.902087e-02 3.903046e-02 6.052583e-02 8.167421e-02 6.255885e-02 
    20.5                2.691509e-02 2.689436e-02 1.809383e-02 6.012849e-03 5.205937e-02 2.013422e-05 2.661930e-02 4.029255e-02 4.030161e-02 6.112367e-02 8.342018e-02 6.327131e-02 
    21.5                2.748710e-02 2.746991e-02 1.794307e-02 5.342083e-03 5.288301e-02 2.035622e-05 2.718144e-02 4.132069e-02 4.133172e-02 6.126038e-02 8.498483e-02 6.379140e-02 
    22.5                2.844275e-02 2.842311e-02 1.816693e-02 5.043338e-03 5.456414e-02 2.081268e-05 2.812330e-02 4.291443e-02 4.292391e-02 6.266489e-02 8.780816e-02 6.550585e-02 
    23.5                2.905028e-02 2.902952e-02 1.826509e-02 4.512153e-03 5.596314e-02 2.082461e-05 2.872116e-02 4.408088e-02 4.409161e-02 6.356122e-02 8.985196e-02 6.634360e-02 
    24.5                2.918249e-02 2.915915e-02 1.801396e-02 4.014510e-03 5.624354e-02 2.071442e-05 2.884991e-02 4.436320e-02 4.437291e-02 6.330286e-02 9.027981e-02 6.616890e-02 
    25.5                2.922423e-02 2.920090e-02 1.771800e-02 3.526615e-03 5.631927e-02 2.054294e-05 2.889140e-02 4.439850e-02 4.440917e-02 6.284944e-02 9.040103e-02 6.582453e-02 
    26.5                2.902988e-02 2.900462e-02 1.729380e-02 3.039368e-03 5.605480e-02 2.013929e-05 2.869935e-02 4.411771e-02 4.412748e-02 6.202505e-02 8.987377e-02 6.499289e-02 
    27.5                2.828411e-02 2.825706e-02 1.667545e-02 2.620221e-03 5.487395e-02 1.940669e-05 2.796243e-02 4.301875e-02 4.303036e-02 6.031835e-02 8.776399e-02 6.306007e-02 
    28.5                2.744526e-02 2.741975e-02 1.590482e-02 2.229334e-03 5.310511e-02 1.877774e-05 2.713461e-02 4.159182e-02 4.160008e-02 5.802538e-02 8.505004e-02 6.091025e-02 
    29.5                2.651083e-02 2.648358e-02 1.520706e-02 1.886413e-03 5.144206e-02 1.792470e-05 2.621227e-02 4.009589e-02 4.010651e-02 5.589196e-02 8.225049e-02 5.861814e-02 
    30.5                2.523749e-02 2.521092e-02 1.432979e-02 1.558357e-03 4.907433e-02 1.696146e-05 2.495545e-02 3.807120e-02 3.807961e-02 5.304274e-02 7.838104e-02 5.563149e-02 
    31.5                2.384209e-02 2.381431e-02 1.338769e-02 1.246010e-03 4.645059e-02 1.587611e-05 2.357725e-02 3.583168e-02 3.584083e-02 4.994039e-02 7.411045e-02 5.238021e-02 
    32.5                2.223481e-02 2.220870e-02 1.237500e-02 9.772709e-04 4.343899e-02 1.469386e-05 2.199014e-02 3.327119e-02 3.327961e-02 4.647233e-02 6.920269e-02 4.871828e-02 
    33.5                2.042054e-02 2.039194e-02 1.131052e-02 7.625520e-04 4.008404e-02 1.332003e-05 2.019824e-02 3.041317e-02 3.042064e-02 4.270803e-02 6.369084e-02 4.465091e-02 
    34.5                1.836204e-02 1.833644e-02 1.013822e-02 5.915408e-04 3.619377e-02 1.190065e-05 1.816505e-02 2.720844e-02 2.721460e-02 3.843918e-02 5.738359e-02 4.009689e-02 
    35.5                1.629532e-02 1.626949e-02 8.963596e-03 4.395601e-04 3.223853e-02 1.045444e-05 1.612248e-02 2.401480e-02 2.402253e-02 3.412434e-02 5.100791e-02 3.553248e-02 
    36.5                1.422652e-02 1.420336e-02 7.795952e-03 3.126221e-04 2.823710e-02 9.056781e-06 1.407808e-02 2.082779e-02 2.083225e-02 2.978784e-02 4.460136e-02 3.097477e-02 
    37.5                1.224457e-02 1.222327e-02 6.697466e-03 2.170000e-04 2.440750e-02 7.695281e-06 1.211874e-02 1.779847e-02 1.780316e-02 2.567023e-02 3.846015e-02 2.662870e-02 
    38.5                1.030767e-02 1.028811e-02 5.639195e-03 1.466180e-04 2.065320e-02 6.395181e-06 1.020337e-02 1.488380e-02 1.488814e-02 2.166536e-02 3.245521e-02 2.239883e-02 
    39.5                8.432101e-03 8.414333e-03 4.636238e-03 9.295827e-05 1.705776e-02 5.132628e-06 8.348405e-03 1.210943e-02 1.211305e-02 1.784960e-02 2.666673e-02 1.831890e-02 
    40.5                6.603352e-03 6.586644e-03 3.659904e-03 5.608833e-05 1.351392e-02 3.935345e-06 6.539062e-03 9.431741e-03 9.434898e-03 1.411138e-02 2.099779e-02 1.434825e-02 
    41.5                4.924657e-03 4.910841e-03 2.759526e-03 3.168246e-05 1.021871e-02 2.853901e-06 4.877730e-03 7.004442e-03 7.006672e-03 1.065125e-02 1.576381e-02 1.070779e-02 
    42.5                3.498010e-03 3.487680e-03 1.977143e-03 1.666881e-05 7.338269e-03 1.981573e-06 3.465360e-03 4.947645e-03 4.949101e-03 7.637129e-03 1.125727e-02 7.610034e-03 
    43.5                2.365635e-03 2.357348e-03 1.357180e-03 8.435072e-06 5.045172e-03 1.287285e-06 2.343982e-03 3.332757e-03 3.333999e-03 5.244289e-03 7.672534e-03 5.152161e-03 
    44.5                1.452479e-03 1.446788e-03 8.595474e-04 3.666876e-06 3.199375e-03 7.399793e-07 1.439528e-03 2.055724e-03 2.056400e-03 3.322163e-03 4.786863e-03 3.173759e-03 
    45.5                7.799250e-04 7.761640e-04 4.788943e-04 1.365787e-06 1.784092e-03 3.611944e-07 7.731804e-04 1.112021e-03 1.112333e-03 1.851005e-03 2.619461e-03 1.710842e-03 
    46.5                3.423337e-04 3.402850e-04 2.231263e-04 4.206394e-07 8.315438e-04 1.363359e-07 3.394945e-04 4.981988e-04 4.985547e-04 8.622272e-04 1.185968e-03 7.562561e-04 
    47.5                1.079919e-04 1.072370e-04 7.660075e-05 8.809476e-08 2.855319e-04 3.599817e-08 1.071387e-04 1.632835e-04 1.633545e-04 2.959390e-04 3.923605e-04 2.414563e-04 
    48.5                2.356151e-05 2.337861e-05 1.842914e-05 1.151074e-08 6.869495e-05 5.444216e-09 2.338730e-05 3.734069e-05 3.737113e-05 7.117451e-05 9.055681e-05 5.346663e-05 
    49.5                2.784985e-06 2.761926e-06 2.554150e-06 3.975803e-10 9.519110e-06 1.863521e-10 2.766937e-06 4.834167e-06 4.846181e-06 9.859948e-06 1.178331e-05 6.494284e-06 
    50.5                5.339902e-08 5.363374e-08 7.313562e-08 0.000000e+00 2.725133e-07 0.000000e+00 5.323886e-08 1.235469e-07 1.238918e-07 2.822270e-07 3.010458e-07 1.374374e-07 
    51.5                0.000000e+00 0.000000e+00 0.000000e+00 0.000000e+00 0.000000e+00 0.000000e+00 0.000000e+00 0.000000e+00 0.000000e+00 0.000000e+00 0.000000e+00 0.000000e+00 
    52.5                0.000000e+00 0.000000e+00 0.000000e+00 0.000000e+00 0.000000e+00 0.000000e+00 0.000000e+00 0.000000e+00 0.000000e+00 0.000000e+00 0.000000e+00 0.000000e+00 
    53.5                0.000000e+00 0.000000e+00 0.000000e+00 0.000000e+00 0.000000e+00 0.000000e+00 0.000000e+00 0.000000e+00 0.000000e+00 0.000000e+00 0.000000e+00 0.000000e+00 
    54.5                0.000000e+00 0.000000e+00 0.000000e+00 0.000000e+00 0.000000e+00 0.000000e+00 0.000000e+00 0.000000e+00 0.000000e+00 0.000000e+00 0.000000e+00 0.000000e+00 
    55.5                0.000000e+00 0.000000e+00 0.000000e+00 0.000000e+00 0.000000e+00 0.000000e+00 0.000000e+00 0.000000e+00 0.000000e+00 0.000000e+00 0.000000e+00 0.000000e+00 
    56.5                0.000000e+00 0.000000e+00 0.000000e+00 0.000000e+00 0.000000e+00 0.000000e+00 0.000000e+00 0.000000e+00 0.000000e+00 0.000000e+00 0.000000e+00 0.000000e+00 
    57.5                0.000000e+00 0.000000e+00 0.000000e+00 0.000000e+00 0.000000e+00 0.000000e+00 0.000000e+00 0.000000e+00 0.000000e+00 0.000000e+00 0.000000e+00 0.000000e+00 
    58.5                0.000000e+00 0.000000e+00 0.000000e+00 0.000000e+00 0.000000e+00 0.000000e+00 0.000000e+00 0.000000e+00 0.000000e+00 0.000000e+00 0.000000e+00 0.000000e+00 
    59.5                0.000000e+00 0.000000e+00 0.000000e+00 0.000000e+00 0.000000e+00 0.000000e+00 0.000000e+00 0.000000e+00 0.000000e+00 0.000000e+00 0.000000e+00 0.000000e+00 
    60.5                0.000000e+00 0.000000e+00 0.000000e+00 0.000000e+00 0.000000e+00 0.000000e+00 0.000000e+00 0.000000e+00 0.000000e+00 0.000000e+00 0.000000e+00 0.000000e+00 
    61.5                0.000000e+00 0.000000e+00 0.000000e+00 0.000000e+00 0.000000e+00 0.000000e+00 0.000000e+00 0.000000e+00 0.000000e+00 0.000000e+00 0.000000e+00 0.000000e+00 
    62.5                0.000000e+00 0.000000e+00 0.000000e+00 0.000000e+00 0.000000e+00 0.000000e+00 0.000000e+00 0.000000e+00 0.000000e+00 0.000000e+00 0.000000e+00 0.000000e+00 
    63.5                0.000000e+00 0.000000e+00 0.000000e+00 0.000000e+00 0.000000e+00 0.000000e+00 0.000000e+00 0.000000e+00 0.000000e+00 0.000000e+00 0.000000e+00 0.000000e+00 
    64.5                0.000000e+00 0.000000e+00 0.000000e+00 0.000000e+00 0.000000e+00 0.000000e+00 0.000000e+00 0.000000e+00 0.000000e+00 0.000000e+00 0.000000e+00 0.000000e+00 
    65.5                0.000000e+00 0.000000e+00 0.000000e+00 0.000000e+00 0.000000e+00 0.000000e+00 0.000000e+00 0.000000e+00 0.000000e+00 0.000000e+00 0.000000e+00 0.000000e+00 
    66.5                0.000000e+00 0.000000e+00 0.000000e+00 0.000000e+00 0.000000e+00 0.000000e+00 0.000000e+00 0.000000e+00 0.000000e+00 0.000000e+00 0.000000e+00 0.000000e+00 
    67.5                0.000000e+00 0.000000e+00 0.000000e+00 0.000000e+00 0.000000e+00 0.000000e+00 0.000000e+00 0.000000e+00 0.000000e+00 0.000000e+00 0.000000e+00 0.000000e+00 
    68.5                0.000000e+00 0.000000e+00 0.000000e+00 0.000000e+00 0.000000e+00 0.000000e+00 0.000000e+00 0.000000e+00 0.000000e+00 0.000000e+00 0.000000e+00 0.000000e+00 
    69.5                0.000000e+00 0.000000e+00 0.000000e+00 0.000000e+00 0.000000e+00 0.000000e+00 0.000000e+00 0.000000e+00 0.000000e+00 0.000000e+00 0.000000e+00 0.000000e+00 
    70.5                0.000000e+00 0.000000e+00 0.000000e+00 0.000000e+00 0.000000e+00 0.000000e+00 0.000000e+00 0.000000e+00 0.000000e+00 0.000000e+00 0.000000e+00 0.000000e+00 
    71.5                0.000000e+00 0.000000e+00 0.000000e+00 0.000000e+00 0.000000e+00 0.000000e+00 0.000000e+00 0.000000e+00 0.000000e+00 0.000000e+00 0.000000e+00 0.000000e+00 
    72.5                0.000000e+00 0.000000e+00 0.000000e+00 0.000000e+00 0.000000e+00 0.000000e+00 0.000000e+00 0.000000e+00 0.000000e+00 0.000000e+00 0.000000e+00 0.000000e+00 
    73.5                0.000000e+00 0.000000e+00 0.000000e+00 0.000000e+00 0.000000e+00 0.000000e+00 0.000000e+00 0.000000e+00 0.000000e+00 0.000000e+00 0.000000e+00 0.000000e+00 
    74.5                0.000000e+00 0.000000e+00 0.000000e+00 0.000000e+00 0.000000e+00 0.000000e+00 0.000000e+00 0.000000e+00 0.000000e+00 0.000000e+00 0.000000e+00 0.000000e+00 
    75.5                0.000000e+00 0.000000e+00 0.000000e+00 0.000000e+00 0.000000e+00 0.000000e+00 0.000000e+00 0.000000e+00 0.000000e+00 0.000000e+00 0.000000e+00 0.000000e+00 
    76.5                0.000000e+00 0.000000e+00 0.000000e+00 0.000000e+00 0.000000e+00 0.000000e+00 0.000000e+00 0.000000e+00 0.000000e+00 0.000000e+00 0.000000e+00 0.000000e+00 
    77.5                0.000000e+00 0.000000e+00 0.000000e+00 0.000000e+00 0.000000e+00 0.000000e+00 0.000000e+00 0.000000e+00 0.000000e+00 0.000000e+00 0.000000e+00 0.000000e+00 
    78.5                0.000000e+00 0.000000e+00 0.000000e+00 0.000000e+00 0.000000e+00 0.000000e+00 0.000000e+00 0.000000e+00 0.000000e+00 0.000000e+00 0.000000e+00 0.000000e+00 
    79.5                0.000000e+00 0.000000e+00 0.000000e+00 0.000000e+00 0.000000e+00 0.000000e+00 0.000000e+00 0.000000e+00 0.000000e+00 0.000000e+00 0.000000e+00 0.000000e+00 


