# 80 rows of flux data
# 12 columns of flux data
# 
# total cross-sectional flux  1.053502e+00 /m^2/yr
#
#                             +x ram      -x wake      +y port -y starboard    +z zenith     -z nadir        Earth          Sun     anti-Sun      rot (x)      rot (y)      rot (z) 
# average speed (km/s)         38.21        36.93        27.92        40.22        34.69        35.51        38.97        27.65        28.16        33.74        36.10        34.70 
# total flux (#/m2/yr)  2.185286e-01 2.602572e-01 3.685580e-01 2.191685e-01 5.062494e-01 3.798801e-04 4.012237e-01 1.673648e-01 1.734513e-01 8.720408e-01 7.748134e-01 8.321756e-01 
# velocity (km/s)
     0.5                0.000000e+00 0.000000e+00 0.000000e+00 0.000000e+00 0.000000e+00 0.000000e+00 0.000000e+00 0.000000e+00 0.000000e+00 0.000000e+00 0.000000e+00 0.000000e+00 
     1.5                0.000000e+00 0.000000e+00 0.000000e+00 0.000000e+00 0.000000e+00 0.000000e+00 0.000000e+00 0.000000e+00 0.000000e+00 0.000000e+00 0.000000e+00 0.000000e+00 
     2.5                1.188308e-04 2.841094e-05 7.901236e-05 7.743867e-05 1.553178e-04 6.896029e-08 1.438715e-04 7.491873e-05 8.274911e-05 2.466120e-04 2.396094e-04 2.385920e-04 
     3.5                4.754013e-04 3.430402e-04 3.534115e-04 4.260720e-04 7.923439e-04 4.101338e-07 7.698844e-04 4.076037e-04 4.422519e-04 1.246849e-03 1.270879e-03 1.255622e-03 
     4.5                8.487906e-04 9.526728e-04 7.905888e-04 9.331277e-04 1.703168e-03 1.048621e-06 1.641211e-03 9.377650e-04 9.828838e-04 2.719721e-03 2.765847e-03 2.767849e-03 
     5.5                1.266044e-03 1.621989e-03 1.407505e-03 1.465451e-03 2.738981e-03 1.860964e-06 2.561615e-03 1.579997e-03 1.627541e-03 4.456469e-03 4.434484e-03 4.513646e-03 
     6.5                1.646510e-03 2.305157e-03 2.243048e-03 1.950356e-03 3.876523e-03 2.691517e-06 3.439211e-03 2.237347e-03 2.273542e-03 6.396284e-03 6.168991e-03 6.380272e-03 
     7.5                2.016415e-03 2.883632e-03 3.222274e-03 2.343282e-03 4.982796e-03 3.467966e-06 4.189612e-03 2.840326e-03 2.867113e-03 8.348526e-03 7.785414e-03 8.202209e-03 
     8.5                2.359818e-03 3.409130e-03 4.209088e-03 2.683377e-03 6.028604e-03 4.213662e-06 4.846354e-03 3.400130e-03 3.410841e-03 1.021018e-02 9.290661e-03 9.922645e-03 
     9.5                2.618652e-03 3.827617e-03 5.211977e-03 2.909946e-03 6.985546e-03 4.732437e-06 5.361987e-03 3.877629e-03 3.890539e-03 1.191118e-02 1.057288e-02 1.142622e-02 
    10.5                2.925247e-03 4.167722e-03 6.231669e-03 3.105473e-03 7.874409e-03 5.349739e-06 5.796183e-03 4.326735e-03 4.356568e-03 1.355498e-02 1.178186e-02 1.289659e-02 
    11.5                3.152979e-03 4.539657e-03 7.469198e-03 3.260023e-03 8.898314e-03 5.766990e-06 6.208563e-03 4.779339e-03 4.826049e-03 1.540970e-02 1.305941e-02 1.448043e-02 
    12.5                3.328111e-03 4.810844e-03 8.452211e-03 3.343632e-03 9.616479e-03 6.283613e-06 6.472638e-03 5.107262e-03 5.164621e-03 1.680425e-02 1.396938e-02 1.567451e-02 
    13.5                3.362620e-03 4.970702e-03 9.396592e-03 3.275677e-03 1.020026e-02 6.293816e-06 6.497519e-03 5.237367e-03 5.296276e-03 1.787821e-02 1.459293e-02 1.655503e-02 
    14.5                3.485038e-03 4.870194e-03 9.922226e-03 3.227038e-03 1.049687e-02 6.353552e-06 6.480541e-03 5.286715e-03 5.354868e-03 1.845004e-02 1.484839e-02 1.697680e-02 
    15.5                3.548301e-03 5.025881e-03 1.090245e-02 3.183280e-03 1.110685e-02 6.411786e-06 6.553806e-03 5.404694e-03 5.472298e-03 1.961648e-02 1.550164e-02 1.791056e-02 
    16.5                3.597155e-03 4.978301e-03 1.116540e-02 3.134310e-03 1.122922e-02 6.348255e-06 6.505662e-03 5.417210e-03 5.484682e-03 1.986251e-02 1.559472e-02 1.808254e-02 
    17.5                3.609566e-03 4.996567e-03 1.158154e-02 3.088972e-03 1.142621e-02 6.534847e-06 6.482682e-03 5.385333e-03 5.454268e-03 2.030222e-02 1.577890e-02 1.841005e-02 
    18.5                3.672560e-03 4.962530e-03 1.204317e-02 3.024499e-03 1.162886e-02 6.731490e-06 6.439346e-03 5.347625e-03 5.417699e-03 2.076323e-02 1.595839e-02 1.875506e-02 
    19.5                3.655586e-03 4.919603e-03 1.214375e-02 2.972583e-03 1.163863e-02 6.558124e-06 6.397647e-03 5.232014e-03 5.305334e-03 2.082024e-02 1.589755e-02 1.871995e-02 
    20.5                3.600378e-03 4.845611e-03 1.208623e-02 2.828099e-03 1.139353e-02 6.583275e-06 6.173886e-03 5.046784e-03 5.116826e-03 2.048824e-02 1.559151e-02 1.843140e-02 
    21.5                3.650478e-03 4.695531e-03 1.221345e-02 2.798769e-03 1.139042e-02 6.865381e-06 6.111209e-03 4.908934e-03 4.979426e-03 2.057736e-02 1.551289e-02 1.843014e-02 
    22.5                3.576218e-03 4.764034e-03 1.247218e-02 2.759177e-03 1.147490e-02 7.096424e-06 6.087477e-03 4.784682e-03 4.857476e-03 2.083272e-02 1.557231e-02 1.859584e-02 
    23.5                3.431172e-03 4.540486e-03 1.182589e-02 2.582803e-03 1.082795e-02 6.816334e-06 5.730951e-03 4.482929e-03 4.549718e-03 1.970009e-02 1.475036e-02 1.761443e-02 
    24.5                3.350675e-03 4.282249e-03 1.135011e-02 2.468682e-03 1.033933e-02 6.765126e-06 5.493676e-03 4.217463e-03 4.281904e-03 1.889380e-02 1.408992e-02 1.685754e-02 
    25.5                3.261478e-03 4.185547e-03 1.112276e-02 2.344227e-03 1.005657e-02 6.437954e-06 5.302624e-03 3.983750e-03 4.046893e-03 1.840345e-02 1.370272e-02 1.640627e-02 
    26.5                3.237616e-03 4.012033e-03 1.067663e-02 2.324336e-03 9.676053e-03 6.639867e-06 5.196852e-03 3.774420e-03 3.839589e-03 1.779339e-02 1.323910e-02 1.585246e-02 
    27.5                3.112989e-03 3.950028e-03 1.022904e-02 2.295195e-03 9.257646e-03 7.097507e-06 5.062063e-03 3.572349e-03 3.636804e-03 1.715503e-02 1.275174e-02 1.529032e-02 
    28.5                3.048054e-03 3.776305e-03 9.763383e-03 2.249422e-03 8.813304e-03 7.427400e-06 4.881211e-03 3.310324e-03 3.375620e-03 1.645410e-02 1.221635e-02 1.467532e-02 
    29.5                2.831632e-03 3.638813e-03 9.187364e-03 2.169411e-03 8.315837e-03 7.047146e-06 4.647869e-03 2.999618e-03 3.065584e-03 1.556550e-02 1.154912e-02 1.386486e-02 
    30.5                2.757082e-03 3.369572e-03 8.785824e-03 2.022017e-03 7.882915e-03 6.785078e-06 4.362507e-03 2.780946e-03 2.842118e-03 1.479269e-02 1.093264e-02 1.316118e-02 
    31.5                2.753661e-03 3.262983e-03 8.470969e-03 2.039343e-03 7.605224e-03 7.204407e-06 4.316394e-03 2.616607e-03 2.679216e-03 1.440648e-02 1.062752e-02 1.280993e-02 
    32.5                2.649684e-03 3.179545e-03 7.823971e-03 2.062290e-03 7.164493e-03 7.061285e-06 4.218542e-03 2.400621e-03 2.466642e-03 1.360797e-02 1.013402e-02 1.213061e-02 
    33.5                2.715113e-03 3.094799e-03 7.413202e-03 2.160742e-03 6.940563e-03 7.240554e-06 4.265699e-03 2.214571e-03 2.287682e-03 1.324141e-02 9.946210e-03 1.183279e-02 
    34.5                2.721536e-03 3.152852e-03 7.386053e-03 2.226878e-03 6.969617e-03 7.265446e-06 4.347823e-03 2.127366e-03 2.203645e-03 1.332698e-02 1.002306e-02 1.189605e-02 
    35.5                2.630429e-03 3.038510e-03 6.594626e-03 2.279545e-03 6.482646e-03 7.130737e-06 4.272486e-03 1.985091e-03 2.063943e-03 1.240766e-02 9.484212e-03 1.112948e-02 
    36.5                2.685857e-03 2.948623e-03 6.311851e-03 2.357935e-03 6.354030e-03 7.203590e-06 4.324185e-03 1.852945e-03 1.935340e-03 1.217935e-02 9.367672e-03 1.093142e-02 
    37.5                2.768123e-03 3.071520e-03 6.282146e-03 2.444696e-03 6.451798e-03 7.092986e-06 4.463062e-03 1.791617e-03 1.877429e-03 1.232121e-02 9.607391e-03 1.112020e-02 
    38.5                2.975457e-03 2.986779e-03 5.901120e-03 2.627778e-03 6.434404e-03 6.953114e-06 4.687861e-03 1.712676e-03 1.807254e-03 1.219262e-02 9.692842e-03 1.104240e-02 
    39.5                2.865964e-03 3.225891e-03 5.670948e-03 2.806443e-03 6.478972e-03 7.147053e-06 4.917324e-03 1.657797e-03 1.758293e-03 1.223500e-02 9.842056e-03 1.110210e-02 
    40.5                2.957404e-03 3.168236e-03 5.495346e-03 2.826215e-03 6.361288e-03 7.296264e-06 4.901468e-03 1.587988e-03 1.687662e-03 1.203906e-02 9.784756e-03 1.100065e-02 
    41.5                3.267766e-03 3.208221e-03 5.254990e-03 3.127943e-03 6.566972e-03 7.422893e-06 5.324329e-03 1.562046e-03 1.672753e-03 1.229762e-02 1.022795e-02 1.130436e-02 
    42.5                3.172648e-03 3.493852e-03 4.818338e-03 3.356458e-03 6.623168e-03 7.084243e-06 5.647380e-03 1.548144e-03 1.666996e-03 1.220799e-02 1.043725e-02 1.129606e-02 
    43.5                3.354855e-03 3.396693e-03 4.439935e-03 3.365756e-03 6.461808e-03 6.840861e-06 5.653431e-03 1.497538e-03 1.615054e-03 1.178863e-02 1.037938e-02 1.108805e-02 
    44.5                3.693387e-03 3.556662e-03 4.395178e-03 3.760155e-03 6.931128e-03 7.258976e-06 6.283463e-03 1.538164e-03 1.669295e-03 1.250259e-02 1.115472e-02 1.175806e-02 
    45.5                3.671886e-03 3.923002e-03 4.229708e-03 3.927735e-03 7.090075e-03 7.126215e-06 6.563319e-03 1.537937e-03 1.672705e-03 1.266345e-02 1.155445e-02 1.203996e-02 
    46.5                3.761886e-03 3.840017e-03 3.957720e-03 4.024041e-03 7.056604e-03 6.891048e-06 6.682214e-03 1.498862e-03 1.635165e-03 1.249266e-02 1.154397e-02 1.192362e-02 
    47.5                4.018540e-03 3.989077e-03 3.787538e-03 4.250470e-03 7.270968e-03 7.013642e-06 7.045105e-03 1.516381e-03 1.657824e-03 1.269209e-02 1.204178e-02 1.229634e-02 
    48.5                4.398246e-03 4.078324e-03 3.537423e-03 4.581690e-03 7.658789e-03 6.829731e-06 7.636930e-03 1.557889e-03 1.708848e-03 1.304699e-02 1.271499e-02 1.275372e-02 
    49.5                4.832357e-03 4.513120e-03 3.451184e-03 5.017273e-03 8.206914e-03 7.183347e-06 8.366064e-03 1.611421e-03 1.774371e-03 1.377899e-02 1.384288e-02 1.372986e-02 
    50.5                5.538843e-03 4.807915e-03 3.305927e-03 5.631310e-03 9.010635e-03 7.382078e-06 9.427227e-03 1.685678e-03 1.866833e-03 1.479428e-02 1.527810e-02 1.492363e-02 
    51.5                6.095172e-03 5.487244e-03 3.112514e-03 6.433651e-03 1.008414e-02 7.511264e-06 1.083283e-02 1.758114e-03 1.961829e-03 1.607794e-02 1.710445e-02 1.641083e-02 
    52.5                6.091412e-03 6.178151e-03 2.841487e-03 6.801965e-03 1.052513e-02 7.453521e-06 1.150658e-02 1.800443e-03 2.011589e-03 1.642878e-02 1.799763e-02 1.707276e-02 
    53.5                6.172510e-03 6.298537e-03 2.552012e-03 6.904642e-03 1.058070e-02 7.234436e-06 1.171667e-02 1.816388e-03 2.026404e-03 1.625264e-02 1.820608e-02 1.712963e-02 
    54.5                5.811557e-03 6.410071e-03 2.285321e-03 6.824420e-03 1.039773e-02 6.834643e-06 1.161862e-02 1.799690e-03 2.002918e-03 1.578085e-02 1.787020e-02 1.669565e-02 
    55.5                5.865080e-03 6.336257e-03 2.115783e-03 6.672042e-03 1.013162e-02 6.697213e-06 1.137418e-02 1.775026e-03 1.969597e-03 1.527799e-02 1.764214e-02 1.645073e-02 
    56.5                5.589071e-03 6.198578e-03 1.903204e-03 6.556265e-03 9.896815e-03 6.313500e-06 1.119390e-02 1.733900e-03 1.921587e-03 1.480149e-02 1.713232e-02 1.589284e-02 
    57.5                5.100692e-03 5.965342e-03 1.674488e-03 6.110764e-03 9.202174e-03 5.875449e-06 1.045326e-02 1.649802e-03 1.820709e-03 1.366686e-02 1.602290e-02 1.481958e-02 
    58.5                4.891234e-03 5.483747e-03 1.443362e-03 5.725365e-03 8.593860e-03 5.364799e-06 9.819297e-03 1.526509e-03 1.683440e-03 1.264387e-02 1.498996e-02 1.380759e-02 
    59.5                4.663737e-03 5.185131e-03 1.245985e-03 5.464409e-03 8.162437e-03 4.968425e-06 9.387607e-03 1.399911e-03 1.547353e-03 1.190523e-02 1.423189e-02 1.305566e-02 
    60.5                4.244104e-03 5.007794e-03 1.091647e-03 5.111561e-03 7.616749e-03 4.642424e-06 8.795465e-03 1.248713e-03 1.383536e-03 1.102465e-02 1.333265e-02 1.219809e-02 
    61.5                3.695064e-03 4.531683e-03 8.682580e-04 4.623054e-03 6.855583e-03 4.001212e-06 7.971555e-03 1.092653e-03 1.212036e-03 9.798690e-03 1.192492e-02 1.084555e-02 
    62.5                3.021201e-03 4.182172e-03 7.060100e-04 3.951597e-03 5.850015e-03 3.498302e-06 6.821609e-03 9.332731e-04 1.032774e-03 8.307037e-03 1.031744e-02 9.383901e-03 
    63.5                2.468606e-03 3.416186e-03 5.210246e-04 3.236648e-03 4.774597e-03 2.806782e-06 5.594700e-03 7.685006e-04 8.486005e-04 6.726050e-03 8.427769e-03 7.642930e-03 
    64.5                1.974738e-03 2.813433e-03 4.019830e-04 2.625295e-03 3.866267e-03 2.270285e-06 4.540779e-03 6.087611e-04 6.722881e-04 5.419021e-03 6.844136e-03 6.198331e-03 
    65.5                1.504928e-03 2.234981e-03 2.859083e-04 2.071938e-03 3.041353e-03 1.738786e-06 3.587423e-03 4.587229e-04 5.078450e-04 4.224729e-03 5.362571e-03 4.839573e-03 
    66.5                1.070347e-03 1.793083e-03 1.987276e-04 1.574740e-03 2.305636e-03 1.321925e-06 2.729165e-03 3.281839e-04 3.647272e-04 3.177567e-03 4.087022e-03 3.683271e-03 
    67.5                6.856590e-04 1.314890e-03 1.247294e-04 1.088612e-03 1.590045e-03 9.159747e-07 1.888706e-03 2.130261e-04 2.376978e-04 2.172214e-03 2.840345e-03 2.556497e-03 
    68.5                3.849000e-04 8.836100e-04 6.918706e-05 6.877609e-04 1.001440e-03 5.772507e-07 1.194549e-03 1.220136e-04 1.372353e-04 1.352793e-03 1.796177e-03 1.613073e-03 
    69.5                1.701411e-04 5.399597e-04 3.354217e-05 3.756511e-04 5.455343e-04 3.260734e-07 6.534399e-04 5.902824e-05 6.714767e-05 7.292781e-04 9.932528e-04 8.923575e-04 
    70.5                4.356893e-05 2.702150e-04 1.267218e-05 1.582456e-04 2.293938e-04 1.459256e-07 2.756285e-04 2.222957e-05 2.554729e-05 3.034264e-04 4.305911e-04 3.879127e-04 
    71.5                5.759823e-06 9.741549e-05 3.576274e-06 4.245009e-05 6.150545e-05 5.426027e-08 7.405898e-05 5.594098e-06 6.454202e-06 8.115278e-05 1.312423e-04 1.206673e-04 
    72.5                1.269570e-07 1.699568e-05 4.412388e-07 5.801673e-06 8.393707e-06 1.027702e-08 1.018439e-05 7.861924e-07 8.994598e-07 1.094610e-05 2.055001e-05 1.919387e-05 
    73.5                0.000000e+00 1.291061e-06 1.265147e-08 2.776380e-07 3.982399e-07 9.578376e-10 4.937793e-07 3.222367e-08 3.742594e-08 5.078737e-07 1.390018e-06 1.344482e-06 
    74.5                0.000000e+00 0.000000e+00 0.000000e+00 0.000000e+00 0.000000e+00 0.000000e+00 0.000000e+00 0.000000e+00 0.000000e+00 0.000000e+00 0.000000e+00 0.000000e+00 
    75.5                0.000000e+00 0.000000e+00 0.000000e+00 0.000000e+00 0.000000e+00 0.000000e+00 0.000000e+00 0.000000e+00 0.000000e+00 0.000000e+00 0.000000e+00 0.000000e+00 
    76.5                0.000000e+00 0.000000e+00 0.000000e+00 0.000000e+00 0.000000e+00 0.000000e+00 0.000000e+00 0.000000e+00 0.000000e+00 0.000000e+00 0.000000e+00 0.000000e+00 
    77.5                0.000000e+00 0.000000e+00 0.000000e+00 0.000000e+00 0.000000e+00 0.000000e+00 0.000000e+00 0.000000e+00 0.000000e+00 0.000000e+00 0.000000e+00 0.000000e+00 
    78.5                0.000000e+00 0.000000e+00 0.000000e+00 0.000000e+00 0.000000e+00 0.000000e+00 0.000000e+00 0.000000e+00 0.000000e+00 0.000000e+00 0.000000e+00 0.000000e+00 
    79.5                0.000000e+00 0.000000e+00 0.000000e+00 0.000000e+00 0.000000e+00 0.000000e+00 0.000000e+00 0.000000e+00 0.000000e+00 0.000000e+00 0.000000e+00 0.000000e+00 


