# 80 rows of flux data
# 12 columns of flux data
# 
# total cross-sectional flux  1.055316e+00 /m^2/yr
#
#                             +x ram      -x wake      +y port -y starboard    +z zenith     -z nadir        Earth          Sun     anti-Sun      rot (x)      rot (y)      rot (z) 
# average speed (km/s)         36.74        38.01        32.35        30.60        37.37        30.63        27.80        28.07        27.62        33.57        37.33        33.62 
# total flux (#/m2/yr)  2.620392e-01 2.196662e-01 3.196548e-01 3.367093e-01 4.637997e-01 3.876399e-04 4.413194e-03 1.760938e-01 1.637266e-01 8.724273e-01 7.462708e-01 8.803209e-01 
# velocity (km/s)
     0.5                0.000000e+00 0.000000e+00 0.000000e+00 0.000000e+00 0.000000e+00 0.000000e+00 0.000000e+00 0.000000e+00 0.000000e+00 0.000000e+00 0.000000e+00 0.000000e+00 
     1.5                0.000000e+00 0.000000e+00 0.000000e+00 0.000000e+00 0.000000e+00 0.000000e+00 0.000000e+00 0.000000e+00 0.000000e+00 0.000000e+00 0.000000e+00 0.000000e+00 
     2.5                2.529712e-05 1.198390e-04 7.133988e-05 7.178734e-05 1.560559e-04 6.899220e-08 1.135305e-06 8.191562e-05 7.178340e-05 2.378343e-04 2.391747e-04 2.268327e-04 
     3.5                3.138576e-04 4.723801e-04 3.469327e-04 3.327165e-04 8.157701e-04 3.699958e-07 4.997707e-06 4.305633e-04 3.855689e-04 1.174597e-03 1.265427e-03 1.149099e-03 
     4.5                9.143837e-04 8.484680e-04 8.122613e-04 7.758337e-04 1.755688e-03 8.862224e-07 1.086994e-05 9.631022e-04 9.102490e-04 2.617180e-03 2.776060e-03 2.622731e-03 
     5.5                1.594416e-03 1.271736e-03 1.404305e-03 1.358402e-03 2.784723e-03 1.561668e-06 1.857647e-05 1.612243e-03 1.542842e-03 4.337374e-03 4.457172e-03 4.392436e-03 
     6.5                2.299077e-03 1.657455e-03 2.128777e-03 2.138135e-03 3.814120e-03 2.514821e-06 3.023069e-05 2.265842e-03 2.204869e-03 6.335712e-03 6.129445e-03 6.424816e-03 
     7.5                2.894352e-03 2.039668e-03 2.886953e-03 2.967282e-03 4.745117e-03 3.458107e-06 4.223921e-05 2.877321e-03 2.802613e-03 8.321712e-03 7.637119e-03 8.439869e-03 
     8.5                3.444590e-03 2.386515e-03 3.616366e-03 3.819038e-03 5.570940e-03 4.543764e-06 5.606707e-05 3.426568e-03 3.371692e-03 1.024326e-02 8.998243e-03 1.039090e-02 
     9.5                3.878049e-03 2.657332e-03 4.311486e-03 4.625659e-03 6.276000e-03 5.472780e-06 6.822675e-05 3.922038e-03 3.848032e-03 1.200532e-02 1.011193e-02 1.214297e-02 
    10.5                4.230680e-03 2.969581e-03 4.985809e-03 5.443772e-03 6.884652e-03 6.484595e-06 8.173725e-05 4.400278e-03 4.288609e-03 1.368953e-02 1.111784e-02 1.385890e-02 
    11.5                4.623418e-03 3.210577e-03 5.763998e-03 6.448829e-03 7.507101e-03 7.805010e-06 9.987662e-05 4.894935e-03 4.739242e-03 1.565530e-02 1.211181e-02 1.580681e-02 
    12.5                4.904442e-03 3.392119e-03 6.354555e-03 7.170593e-03 7.951725e-03 8.644136e-06 1.108419e-04 5.244687e-03 5.048181e-03 1.706201e-02 1.283070e-02 1.722667e-02 
    13.5                5.088812e-03 3.429954e-03 6.822483e-03 7.923309e-03 8.124338e-03 9.910518e-06 1.286273e-04 5.395722e-03 5.185470e-03 1.826903e-02 1.314388e-02 1.844443e-02 
    14.5                4.982824e-03 3.563564e-03 7.078040e-03 8.317314e-03 8.179472e-03 1.045380e-05 1.365122e-04 5.463638e-03 5.231088e-03 1.887607e-02 1.321012e-02 1.903097e-02 
    15.5                5.154680e-03 3.629455e-03 7.608473e-03 9.025510e-03 8.416962e-03 1.130878e-05 1.488089e-04 5.598609e-03 5.337295e-03 2.010088e-02 1.358769e-02 2.024821e-02 
    16.5                5.110029e-03 3.681854e-03 7.730515e-03 9.231437e-03 8.403193e-03 1.167506e-05 1.534760e-04 5.615346e-03 5.348464e-03 2.037457e-02 1.358468e-02 2.052178e-02 
    17.5                5.127725e-03 3.695156e-03 7.930293e-03 9.522808e-03 8.447778e-03 1.211841e-05 1.592275e-04 5.589187e-03 5.304856e-03 2.081947e-02 1.364493e-02 2.095691e-02 
    18.5                5.092950e-03 3.764466e-03 8.155001e-03 9.803445e-03 8.483644e-03 1.233624e-05 1.624247e-04 5.562359e-03 5.255431e-03 2.126369e-02 1.370151e-02 2.140118e-02 
    19.5                5.050817e-03 3.745547e-03 8.227620e-03 9.822987e-03 8.476757e-03 1.211115e-05 1.589015e-04 5.452314e-03 5.132513e-03 2.129907e-02 1.364947e-02 2.139176e-02 
    20.5                4.971597e-03 3.691191e-03 8.137898e-03 9.690926e-03 8.270306e-03 1.186653e-05 1.551180e-04 5.262409e-03 4.943437e-03 2.093365e-02 1.337885e-02 2.107793e-02 
    21.5                4.819197e-03 3.743162e-03 8.183574e-03 9.776982e-03 8.217520e-03 1.199415e-05 1.566808e-04 5.122447e-03 4.796577e-03 2.099676e-02 1.326118e-02 2.109971e-02 
    22.5                4.884226e-03 3.666865e-03 8.316358e-03 9.911759e-03 8.249579e-03 1.197074e-05 1.561642e-04 5.003713e-03 4.663827e-03 2.121212e-02 1.327709e-02 2.129840e-02 
    23.5                4.660057e-03 3.518116e-03 7.892238e-03 9.348377e-03 7.796099e-03 1.117263e-05 1.449528e-04 4.683506e-03 4.366400e-03 2.003674e-02 1.262555e-02 2.016055e-02 
    24.5                4.387388e-03 3.433070e-03 7.590551e-03 8.904949e-03 7.500814e-03 1.035931e-05 1.341737e-04 4.406107e-03 4.099337e-03 1.915778e-02 1.210610e-02 1.925078e-02 
    25.5                4.292474e-03 3.342961e-03 7.435290e-03 8.672629e-03 7.295593e-03 1.003926e-05 1.284713e-04 4.170506e-03 3.870483e-03 1.866503e-02 1.179828e-02 1.876397e-02 
    26.5                4.105118e-03 3.314849e-03 7.197283e-03 8.282712e-03 7.127682e-03 9.282174e-06 1.181156e-04 3.951991e-03 3.658607e-03 1.796745e-02 1.149581e-02 1.804236e-02 
    27.5                4.037664e-03 3.181353e-03 6.949868e-03 7.887934e-03 6.928949e-03 8.561002e-06 1.077737e-04 3.734675e-03 3.453144e-03 1.722871e-02 1.117983e-02 1.730662e-02 
    28.5                3.851735e-03 3.108957e-03 6.663788e-03 7.511847e-03 6.661259e-03 8.042777e-06 1.002761e-04 3.461496e-03 3.193182e-03 1.644744e-02 1.076356e-02 1.653489e-02 
    29.5                3.705468e-03 2.885364e-03 6.322714e-03 7.085792e-03 6.320556e-03 7.439896e-06 9.237564e-05 3.142884e-03 2.889716e-03 1.554321e-02 1.019916e-02 1.561609e-02 
    30.5                3.434043e-03 2.814066e-03 6.028184e-03 6.755764e-03 5.961312e-03 7.088714e-06 8.756077e-05 2.912764e-03 2.675998e-03 1.476636e-02 9.647531e-03 1.484535e-02 
    31.5                3.318778e-03 2.800615e-03 5.870188e-03 6.498252e-03 5.877306e-03 6.606936e-06 8.072127e-05 2.740670e-03 2.510858e-03 1.430281e-02 9.478593e-03 1.436902e-02 
    32.5                3.228383e-03 2.687100e-03 5.535576e-03 6.065838e-03 5.652958e-03 6.085432e-06 7.330464e-05 2.517090e-03 2.302356e-03 1.347502e-02 9.139364e-03 1.354372e-02 
    33.5                3.126900e-03 2.747267e-03 5.374588e-03 5.814515e-03 5.625391e-03 5.691435e-06 6.729479e-05 2.331307e-03 2.121001e-03 1.306577e-02 9.081928e-03 1.313151e-02 
    34.5                3.184511e-03 2.747993e-03 5.427360e-03 5.828383e-03 5.709499e-03 5.554491e-06 6.516472e-05 2.243416e-03 2.032850e-03 1.314214e-02 9.192609e-03 1.320330e-02 
    35.5                3.063213e-03 2.646361e-03 5.018338e-03 5.332842e-03 5.471277e-03 5.075096e-06 5.835995e-05 2.092830e-03 1.900526e-03 1.219480e-02 8.829767e-03 1.226036e-02 
    36.5                2.959839e-03 2.703654e-03 4.911262e-03 5.175849e-03 5.467124e-03 4.825125e-06 5.513007e-05 1.958957e-03 1.770650e-03 1.194683e-02 8.791062e-03 1.199158e-02 
    37.5                3.090331e-03 2.781639e-03 4.973869e-03 5.217115e-03 5.603260e-03 4.898651e-06 5.474858e-05 1.900734e-03 1.712475e-03 1.210661e-02 9.065181e-03 1.220074e-02 
    38.5                2.996380e-03 2.981373e-03 4.882936e-03 5.062844e-03 5.742641e-03 4.696761e-06 5.181761e-05 1.826664e-03 1.640563e-03 1.197417e-02 9.250623e-03 1.203676e-02 
    39.5                3.223628e-03 2.868371e-03 4.861541e-03 4.987394e-03 5.916925e-03 4.565023e-06 4.961867e-05 1.773260e-03 1.587350e-03 1.198524e-02 9.475684e-03 1.202012e-02 
    40.5                3.174649e-03 2.956429e-03 4.778996e-03 4.881785e-03 5.868605e-03 4.518497e-06 4.815505e-05 1.700821e-03 1.521956e-03 1.178322e-02 9.477215e-03 1.188460e-02 
    41.5                3.204807e-03 3.259949e-03 4.820152e-03 4.863332e-03 6.225394e-03 4.482215e-06 4.677750e-05 1.682681e-03 1.499809e-03 1.202899e-02 1.001449e-02 1.210546e-02 
    42.5                3.483529e-03 3.159744e-03 4.724210e-03 4.692976e-03 6.461333e-03 4.319784e-06 4.391163e-05 1.672690e-03 1.491198e-03 1.196314e-02 1.034349e-02 1.200841e-02 
    43.5                3.387760e-03 3.342698e-03 4.516626e-03 4.455138e-03 6.389764e-03 4.281339e-06 4.212338e-05 1.620569e-03 1.447564e-03 1.155866e-02 1.035458e-02 1.170684e-02 
    44.5                3.538408e-03 3.673648e-03 4.729342e-03 4.603030e-03 6.997420e-03 4.325604e-06 4.199297e-05 1.672424e-03 1.488622e-03 1.224818e-02 1.121418e-02 1.231182e-02 
    45.5                3.901633e-03 3.647314e-03 4.762937e-03 4.601403e-03 7.237482e-03 4.393031e-06 4.178803e-05 1.673928e-03 1.491145e-03 1.242248e-02 1.166498e-02 1.256500e-02 
    46.5                3.820113e-03 3.743617e-03 4.654643e-03 4.455197e-03 7.308927e-03 4.264568e-06 4.002261e-05 1.636964e-03 1.457706e-03 1.227768e-02 1.173424e-02 1.238678e-02 
    47.5                3.961052e-03 3.990148e-03 4.637149e-03 4.391317e-03 7.620276e-03 4.368078e-06 3.946927e-05 1.657719e-03 1.476913e-03 1.246132e-02 1.228531e-02 1.262375e-02 
    48.5                4.053996e-03 4.372321e-03 4.650957e-03 4.336434e-03 8.169358e-03 4.411570e-06 3.902098e-05 1.708186e-03 1.522154e-03 1.285047e-02 1.309281e-02 1.294349e-02 
    49.5                4.486355e-03 4.800818e-03 4.829819e-03 4.444033e-03 8.868581e-03 4.664902e-06 4.021380e-05 1.773202e-03 1.577633e-03 1.358017e-02 1.431615e-02 1.380916e-02 
    50.5                4.773131e-03 5.494890e-03 5.044944e-03 4.554477e-03 9.884869e-03 4.933783e-06 4.089047e-05 1.865118e-03 1.654051e-03 1.459169e-02 1.589375e-02 1.480792e-02 
    51.5                5.449023e-03 6.046205e-03 5.261410e-03 4.636303e-03 1.124355e-02 5.235094e-06 4.195736e-05 1.959962e-03 1.729538e-03 1.589526e-02 1.793496e-02 1.599785e-02 
    52.5                6.142514e-03 6.047119e-03 5.200894e-03 4.492830e-03 1.187577e-02 5.356127e-06 4.159042e-05 2.009240e-03 1.774362e-03 1.628238e-02 1.897482e-02 1.643656e-02 
    53.5                6.252511e-03 6.127414e-03 5.000021e-03 4.244551e-03 1.202856e-02 5.331765e-06 4.028749e-05 2.022975e-03 1.793043e-03 1.611530e-02 1.924600e-02 1.630846e-02 
    54.5                6.367928e-03 5.776904e-03 4.755807e-03 3.985301e-03 1.188156e-02 5.126303e-06 3.814489e-05 1.999202e-03 1.778490e-03 1.565382e-02 1.895218e-02 1.578005e-02 
    55.5                6.298967e-03 5.819953e-03 4.550794e-03 3.784735e-03 1.161550e-02 5.104116e-06 3.717373e-05 1.966119e-03 1.755683e-03 1.516425e-02 1.870966e-02 1.548765e-02 
    56.5                6.157971e-03 5.547565e-03 4.342396e-03 3.568696e-03 1.140326e-02 4.798660e-06 3.462010e-05 1.917597e-03 1.716111e-03 1.469620e-02 1.821660e-02 1.487860e-02 
    57.5                5.931754e-03 5.064457e-03 3.953122e-03 3.223175e-03 1.062839e-02 4.516944e-06 3.217506e-05 1.816682e-03 1.633875e-03 1.357251e-02 1.705831e-02 1.381027e-02 
    58.5                5.456585e-03 4.856250e-03 3.591966e-03 2.893109e-03 9.967001e-03 4.147856e-06 2.929076e-05 1.679639e-03 1.512721e-03 1.256600e-02 1.598841e-02 1.278673e-02 
    59.5                5.156047e-03 4.628471e-03 3.326594e-03 2.643809e-03 9.506909e-03 3.852312e-06 2.673348e-05 1.543501e-03 1.387927e-03 1.183397e-02 1.520445e-02 1.201920e-02 
    60.5                4.976012e-03 4.206559e-03 3.021159e-03 2.374772e-03 8.884087e-03 3.608412e-06 2.471678e-05 1.380116e-03 1.238116e-03 1.094958e-02 1.424340e-02 1.114670e-02 
    61.5                4.509267e-03 3.664694e-03 2.606205e-03 2.008053e-03 8.040582e-03 3.136494e-06 2.107765e-05 1.209011e-03 1.084031e-03 9.744071e-03 1.278908e-02 9.819390e-03 
    62.5                4.161848e-03 3.002104e-03 2.169682e-03 1.652989e-03 6.878843e-03 2.754831e-06 1.832161e-05 1.030469e-03 9.262160e-04 8.270031e-03 1.106848e-02 8.465235e-03 
    63.5                3.400171e-03 2.446306e-03 1.720826e-03 1.291771e-03 5.624899e-03 2.232308e-06 1.454551e-05 8.460319e-04 7.628788e-04 6.689287e-03 9.042705e-03 6.855632e-03 
    64.5                2.800719e-03 1.957856e-03 1.367114e-03 1.015837e-03 4.564398e-03 1.819658e-06 1.178685e-05 6.705021e-04 6.045545e-04 5.393283e-03 7.351525e-03 5.536208e-03 
    65.5                2.224158e-03 1.494225e-03 1.037446e-03 7.568262e-04 3.603297e-03 1.396924e-06 8.927331e-06 5.065664e-04 4.556980e-04 4.208090e-03 5.773054e-03 4.290432e-03 
    66.5                1.782654e-03 1.061786e-03 7.590116e-04 5.435326e-04 2.734260e-03 1.061842e-06 6.696716e-06 3.637476e-04 3.260696e-04 3.162095e-03 4.397685e-03 3.244269e-03 
    67.5                1.308804e-03 6.794334e-04 5.027956e-04 3.523665e-04 1.890506e-03 7.455982e-07 4.645378e-06 2.370488e-04 2.117147e-04 2.163096e-03 3.058649e-03 2.239609e-03 
    68.5                8.803223e-04 3.805734e-04 2.991584e-04 2.028620e-04 1.193548e-03 4.729174e-07 2.891551e-06 1.369455e-04 1.213224e-04 1.347251e-03 1.935824e-03 1.400515e-03 
    69.5                5.388708e-04 1.681331e-04 1.531590e-04 9.992187e-05 6.527219e-04 2.641622e-07 1.607661e-06 6.704870e-05 5.874656e-05 7.275320e-04 1.071457e-03 7.716748e-04 
    70.5                2.699678e-04 4.285732e-05 5.966004e-05 3.700245e-05 2.749893e-04 1.203333e-07 7.203314e-07 2.555119e-05 2.216033e-05 3.028680e-04 4.636975e-04 3.348618e-04 
    71.5                9.791933e-05 5.623566e-06 1.529947e-05 9.176269e-06 7.425251e-05 4.442734e-08 2.632454e-07 6.483854e-06 5.603782e-06 8.156723e-05 1.403524e-04 1.078244e-04 
    72.5                1.712172e-05 1.184983e-07 1.859521e-06 1.007241e-06 1.019814e-05 8.483775e-09 5.057455e-08 9.102679e-07 7.957962e-07 1.105609e-05 2.181796e-05 1.759307e-05 
    73.5                1.320835e-06 0.000000e+00 7.397517e-08 2.949927e-08 5.132789e-07 7.823859e-10 4.376223e-09 3.885931e-08 3.337813e-08 5.395111e-07 1.473533e-06 1.326710e-06 
    74.5                0.000000e+00 0.000000e+00 0.000000e+00 0.000000e+00 0.000000e+00 0.000000e+00 0.000000e+00 0.000000e+00 0.000000e+00 0.000000e+00 0.000000e+00 0.000000e+00 
    75.5                0.000000e+00 0.000000e+00 0.000000e+00 0.000000e+00 0.000000e+00 0.000000e+00 0.000000e+00 0.000000e+00 0.000000e+00 0.000000e+00 0.000000e+00 0.000000e+00 
    76.5                0.000000e+00 0.000000e+00 0.000000e+00 0.000000e+00 0.000000e+00 0.000000e+00 0.000000e+00 0.000000e+00 0.000000e+00 0.000000e+00 0.000000e+00 0.000000e+00 
    77.5                0.000000e+00 0.000000e+00 0.000000e+00 0.000000e+00 0.000000e+00 0.000000e+00 0.000000e+00 0.000000e+00 0.000000e+00 0.000000e+00 0.000000e+00 0.000000e+00 
    78.5                0.000000e+00 0.000000e+00 0.000000e+00 0.000000e+00 0.000000e+00 0.000000e+00 0.000000e+00 0.000000e+00 0.000000e+00 0.000000e+00 0.000000e+00 0.000000e+00 
    79.5                0.000000e+00 0.000000e+00 0.000000e+00 0.000000e+00 0.000000e+00 0.000000e+00 0.000000e+00 0.000000e+00 0.000000e+00 0.000000e+00 0.000000e+00 0.000000e+00 


