# 80 rows of flux data
# 12 columns of flux data
# 
# total cross-sectional flux  9.914232e-01 /m^2/yr
#
#                             +x ram      -x wake      +y port -y starboard    +z zenith     -z nadir        Earth          Sun     anti-Sun      rot (x)      rot (y)      rot (z) 
# average speed (km/s)         37.74        37.75        33.72        29.93        37.78        30.75        37.77        28.24        28.24        33.89        37.74        33.99 
# total flux (#/m2/yr)  2.275852e-01 2.275311e-01 2.865021e-01 3.285489e-01 4.282820e-01 3.933526e-04 2.270491e-01 1.548983e-01 1.548162e-01 8.175469e-01 6.979107e-01 8.289551e-01 
# velocity (km/s)
     0.5                0.000000e+00 0.000000e+00 0.000000e+00 0.000000e+00 0.000000e+00 0.000000e+00 0.000000e+00 0.000000e+00 0.000000e+00 0.000000e+00 0.000000e+00 0.000000e+00 
     1.5                0.000000e+00 0.000000e+00 0.000000e+00 0.000000e+00 0.000000e+00 0.000000e+00 0.000000e+00 0.000000e+00 0.000000e+00 0.000000e+00 0.000000e+00 0.000000e+00 
     2.5                8.907467e-05 9.016367e-05 8.271674e-05 6.573536e-05 2.054799e-04 2.924342e-08 8.956619e-05 9.330517e-05 9.317573e-05 2.748160e-04 3.009455e-04 2.575411e-04 
     3.5                4.598837e-04 4.599274e-04 4.301799e-04 3.665376e-04 8.981996e-04 3.486504e-07 4.573059e-04 4.730647e-04 4.726922e-04 1.320185e-03 1.431579e-03 1.338020e-03 
     4.5                8.926747e-04 8.914656e-04 8.782847e-04 8.096029e-04 1.654328e-03 9.291891e-07 8.864738e-04 9.526612e-04 9.522715e-04 2.618789e-03 2.715157e-03 2.711556e-03 
     5.5                1.353018e-03 1.351346e-03 1.403335e-03 1.359075e-03 2.483614e-03 1.624606e-06 1.343737e-03 1.496200e-03 1.495498e-03 4.115050e-03 4.099001e-03 4.266297e-03 
     6.5                1.788295e-03 1.785448e-03 1.951517e-03 2.071271e-03 3.253933e-03 2.591964e-06 1.776108e-03 2.010659e-03 2.009984e-03 5.731093e-03 5.398327e-03 5.939727e-03 
     7.5                2.204616e-03 2.200512e-03 2.567496e-03 2.883926e-03 4.011106e-03 3.580381e-06 2.189380e-03 2.516986e-03 2.515965e-03 7.476530e-03 6.656354e-03 7.718532e-03 
     8.5                2.580444e-03 2.576390e-03 3.087231e-03 3.656709e-03 4.700586e-03 4.586440e-06 2.563681e-03 2.992654e-03 2.991645e-03 9.069289e-03 7.795821e-03 9.337797e-03 
     9.5                2.881717e-03 2.876980e-03 3.627902e-03 4.472519e-03 5.243489e-03 5.591388e-06 2.863182e-03 3.400295e-03 3.399280e-03 1.060045e-02 8.705578e-03 1.089300e-02 
    10.5                3.195711e-03 3.190605e-03 4.166994e-03 5.295512e-03 5.864343e-03 6.530076e-06 3.175175e-03 3.858102e-03 3.856528e-03 1.219845e-02 9.688841e-03 1.247744e-02 
    11.5                3.462923e-03 3.457167e-03 4.705727e-03 6.302479e-03 6.358858e-03 7.846635e-06 3.441639e-03 4.252294e-03 4.250339e-03 1.386855e-02 1.050830e-02 1.416428e-02 
    12.5                3.673217e-03 3.667373e-03 5.153954e-03 7.027353e-03 6.729155e-03 8.548302e-06 3.651813e-03 4.481509e-03 4.479930e-03 1.513483e-02 1.113377e-02 1.543516e-02 
    13.5                3.719932e-03 3.713256e-03 5.268373e-03 7.706451e-03 6.842812e-03 9.559436e-06 3.699422e-03 4.584761e-03 4.582475e-03 1.592408e-02 1.129839e-02 1.620553e-02 
    14.5                3.811858e-03 3.806453e-03 5.680874e-03 8.312057e-03 7.105579e-03 1.006527e-05 3.793661e-03 4.692708e-03 4.690415e-03 1.697166e-02 1.165008e-02 1.721385e-02 
    15.5                3.909060e-03 3.902823e-03 5.907660e-03 8.993757e-03 7.263670e-03 1.114893e-05 3.890376e-03 4.814347e-03 4.812286e-03 1.787638e-02 1.193123e-02 1.811179e-02 
    16.5                3.933840e-03 3.927876e-03 6.048834e-03 9.219943e-03 7.362120e-03 1.135589e-05 3.916049e-03 4.853875e-03 4.851600e-03 1.824580e-02 1.204734e-02 1.845525e-02 
    17.5                3.955832e-03 3.950764e-03 6.158082e-03 9.554413e-03 7.404136e-03 1.175482e-05 3.939559e-03 4.798917e-03 4.796525e-03 1.864939e-02 1.211598e-02 1.885246e-02 
    18.5                3.997927e-03 3.991279e-03 6.403783e-03 9.927589e-03 7.536262e-03 1.220993e-05 3.981036e-03 4.819001e-03 4.816485e-03 1.926242e-02 1.228592e-02 1.942519e-02 
    19.5                4.014659e-03 4.010611e-03 6.528123e-03 9.970213e-03 7.490963e-03 1.217527e-05 4.000757e-03 4.693369e-03 4.691286e-03 1.934659e-02 1.227856e-02 1.954969e-02 
    20.5                3.907149e-03 3.903316e-03 6.489932e-03 9.815013e-03 7.371669e-03 1.179087e-05 3.893622e-03 4.536128e-03 4.533589e-03 1.907218e-02 1.201350e-02 1.920767e-02 
    21.5                3.945225e-03 3.941675e-03 6.614235e-03 9.984431e-03 7.468358e-03 1.200532e-05 3.932882e-03 4.486705e-03 4.484153e-03 1.936299e-02 1.214959e-02 1.949099e-02 
    22.5                3.913706e-03 3.908726e-03 6.630778e-03 1.009960e-02 7.330622e-03 1.210278e-05 3.901530e-03 4.308681e-03 4.306177e-03 1.937773e-02 1.199373e-02 1.953047e-02 
    23.5                3.713327e-03 3.709791e-03 6.349611e-03 9.447601e-03 7.008779e-03 1.126808e-05 3.702347e-03 4.042139e-03 4.040360e-03 1.833165e-02 1.142077e-02 1.844154e-02 
    24.5                3.611418e-03 3.608104e-03 6.277730e-03 9.094406e-03 6.820304e-03 1.064963e-05 3.600966e-03 3.823730e-03 3.821207e-03 1.780064e-02 1.110795e-02 1.790218e-02 
    25.5                3.508041e-03 3.505443e-03 6.123114e-03 8.781029e-03 6.631606e-03 1.022008e-05 3.498070e-03 3.630297e-03 3.628477e-03 1.726137e-02 1.079579e-02 1.734656e-02 
    26.5                3.465102e-03 3.462048e-03 6.099554e-03 8.473806e-03 6.552244e-03 9.730352e-06 3.455032e-03 3.475793e-03 3.473679e-03 1.687286e-02 1.066470e-02 1.695510e-02 
    27.5                3.349891e-03 3.346990e-03 5.862945e-03 7.965228e-03 6.273998e-03 9.041112e-06 3.339389e-03 3.249263e-03 3.247266e-03 1.601210e-02 1.026262e-02 1.611067e-02 
    28.5                3.242014e-03 3.241436e-03 5.722338e-03 7.620680e-03 6.121583e-03 8.506636e-06 3.235022e-03 2.992676e-03 2.990901e-03 1.545716e-02 9.971110e-03 1.552387e-02 
    29.5                3.035729e-03 3.032849e-03 5.360347e-03 7.107074e-03 5.678082e-03 7.956793e-06 3.027237e-03 2.709919e-03 2.708457e-03 1.440686e-02 9.293240e-03 1.449151e-02 
    30.5                2.915417e-03 2.913956e-03 5.246426e-03 6.846879e-03 5.524472e-03 7.474595e-06 2.908812e-03 2.566324e-03 2.564596e-03 1.395587e-02 8.981056e-03 1.400251e-02 
    31.5                2.904459e-03 2.902803e-03 5.184613e-03 6.597661e-03 5.488471e-03 7.017666e-06 2.898038e-03 2.396561e-03 2.395195e-03 1.363175e-02 8.932223e-03 1.366599e-02 
    32.5                2.781283e-03 2.780278e-03 4.863324e-03 6.047572e-03 5.253169e-03 6.390986e-06 2.775283e-03 2.195716e-03 2.194354e-03 1.270540e-02 8.552353e-03 1.274837e-02 
    33.5                2.812970e-03 2.812405e-03 4.929053e-03 5.901921e-03 5.354727e-03 5.958389e-06 2.808353e-03 2.063510e-03 2.062059e-03 1.265575e-02 8.678003e-03 1.268541e-02 
    34.5                2.837066e-03 2.834106e-03 4.900062e-03 5.854774e-03 5.355962e-03 5.951636e-06 2.829907e-03 2.000707e-03 1.999326e-03 1.257608e-02 8.714162e-03 1.260979e-02 
    35.5                2.724316e-03 2.726427e-03 4.554563e-03 5.266481e-03 5.148220e-03 5.258083e-06 2.721042e-03 1.847313e-03 1.846355e-03 1.162027e-02 8.376151e-03 1.165753e-02 
    36.5                2.759462e-03 2.759168e-03 4.639933e-03 5.241936e-03 5.245902e-03 5.060344e-06 2.755998e-03 1.747828e-03 1.746657e-03 1.170780e-02 8.509321e-03 1.174050e-02 
    37.5                2.820771e-03 2.821638e-03 4.601288e-03 5.168331e-03 5.394990e-03 5.060507e-06 2.817248e-03 1.701625e-03 1.700598e-03 1.170870e-02 8.722551e-03 1.170551e-02 
    38.5                2.983265e-03 2.982797e-03 4.726728e-03 5.096332e-03 5.771529e-03 4.827830e-06 2.979442e-03 1.654410e-03 1.653354e-03 1.196172e-02 9.260878e-03 1.194205e-02 
    39.5                2.941974e-03 2.945940e-03 4.556401e-03 4.910073e-03 5.555278e-03 4.807532e-06 2.941967e-03 1.591199e-03 1.590136e-03 1.151879e-02 9.043727e-03 1.158470e-02 
    40.5                2.980010e-03 2.982999e-03 4.576651e-03 4.844975e-03 5.718267e-03 4.620798e-06 2.978692e-03 1.525082e-03 1.524265e-03 1.158110e-02 9.228183e-03 1.157924e-02 
    41.5                3.268305e-03 3.270500e-03 4.737488e-03 4.823987e-03 6.295745e-03 4.595355e-06 3.265859e-03 1.565486e-03 1.564699e-03 1.207425e-02 1.012478e-02 1.207443e-02 
    42.5                3.234140e-03 3.232819e-03 4.472897e-03 4.507394e-03 6.104985e-03 4.533691e-06 3.228239e-03 1.508857e-03 1.507596e-03 1.147159e-02 9.933625e-03 1.154838e-02 
    43.5                3.307878e-03 3.311548e-03 4.474675e-03 4.328606e-03 6.442442e-03 4.173751e-06 3.305582e-03 1.495905e-03 1.494811e-03 1.154550e-02 1.030461e-02 1.152170e-02 
    44.5                3.666520e-03 3.667277e-03 4.831681e-03 4.587332e-03 7.079123e-03 4.482423e-06 3.663123e-03 1.576188e-03 1.575143e-03 1.245178e-02 1.137335e-02 1.247934e-02 
    45.5                3.664227e-03 3.666573e-03 4.667839e-03 4.378607e-03 7.034245e-03 4.422403e-06 3.661006e-03 1.508065e-03 1.507255e-03 1.213721e-02 1.133680e-02 1.217674e-02 
    46.5                3.772746e-03 3.767875e-03 4.627869e-03 4.268186e-03 7.206178e-03 4.380476e-06 3.761855e-03 1.509156e-03 1.508225e-03 1.216904e-02 1.163566e-02 1.223193e-02 
    47.5                3.926504e-03 3.931440e-03 4.635136e-03 4.155275e-03 7.679551e-03 4.417007e-06 3.925682e-03 1.564268e-03 1.563263e-03 1.245292e-02 1.226187e-02 1.239999e-02 
    48.5                4.366381e-03 4.368521e-03 4.852778e-03 4.166725e-03 8.409844e-03 4.464953e-06 4.361339e-03 1.604158e-03 1.603002e-03 1.315667e-02 1.351738e-02 1.324157e-02 
    49.5                4.640685e-03 4.648633e-03 5.073170e-03 4.232529e-03 9.225908e-03 4.610126e-06 4.640827e-03 1.682499e-03 1.681766e-03 1.399401e-02 1.459738e-02 1.386814e-02 
    50.5                5.343039e-03 5.355153e-03 5.405575e-03 4.313782e-03 1.056136e-02 4.980193e-06 5.345610e-03 1.783799e-03 1.782739e-03 1.537154e-02 1.674992e-02 1.526357e-02 
    51.5                6.002079e-03 6.013411e-03 5.602874e-03 4.296876e-03 1.162763e-02 5.444442e-06 6.003493e-03 1.853611e-03 1.852531e-03 1.637784e-02 1.863731e-02 1.647877e-02 
    52.5                6.086297e-03 6.087119e-03 5.347684e-03 3.973093e-03 1.162473e-02 5.551979e-06 6.077894e-03 1.876519e-03 1.875364e-03 1.599823e-02 1.876886e-02 1.624497e-02 
    53.5                6.196522e-03 6.198313e-03 5.216342e-03 3.751094e-03 1.178155e-02 5.437332e-06 6.189393e-03 1.880156e-03 1.879223e-03 1.589153e-02 1.906170e-02 1.620705e-02 
    54.5                5.920418e-03 5.921775e-03 4.833850e-03 3.433963e-03 1.109899e-02 5.328147e-06 5.912218e-03 1.837184e-03 1.836114e-03 1.484396e-02 1.811824e-02 1.528119e-02 
    55.5                5.903157e-03 5.908545e-03 4.746324e-03 3.266234e-03 1.119190e-02 5.010456e-06 5.898933e-03 1.816074e-03 1.815010e-03 1.473198e-02 1.813450e-02 1.510324e-02 
    56.5                5.692135e-03 5.693470e-03 4.483742e-03 3.072365e-03 1.066801e-02 4.969280e-06 5.684574e-03 1.755578e-03 1.754547e-03 1.399682e-02 1.740069e-02 1.443780e-02 
    57.5                5.210532e-03 5.213165e-03 3.959721e-03 2.653918e-03 9.736950e-03 4.554771e-06 5.204986e-03 1.627080e-03 1.626247e-03 1.259479e-02 1.592134e-02 1.302705e-02 
    58.5                4.990100e-03 4.990400e-03 3.716079e-03 2.417238e-03 9.336923e-03 4.192919e-06 4.982424e-03 1.497688e-03 1.496892e-03 1.191955e-02 1.523471e-02 1.234041e-02 
    59.5                4.761163e-03 4.760248e-03 3.457828e-03 2.198744e-03 8.903526e-03 3.931278e-06 4.753051e-03 1.365234e-03 1.364643e-03 1.125066e-02 1.453133e-02 1.164775e-02 
    60.5                4.332999e-03 4.339446e-03 3.042699e-03 1.881142e-03 8.094189e-03 3.653927e-06 4.332910e-03 1.194633e-03 1.193858e-03 1.009684e-02 1.323563e-02 1.047881e-02 
    61.5                3.918912e-03 3.920779e-03 2.581640e-03 1.563415e-03 7.055709e-03 3.359864e-06 3.915001e-03 1.038145e-03 1.037627e-03 8.722456e-03 1.176301e-02 9.289437e-03 
    62.5                3.195964e-03 3.191494e-03 2.066565e-03 1.212746e-03 5.774835e-03 2.691806e-06 3.187306e-03 8.622138e-04 8.616663e-04 7.060460e-03 9.606323e-03 7.520720e-03 
    63.5                2.617031e-03 2.616680e-03 1.648831e-03 9.479625e-04 4.711166e-03 2.216419e-06 2.613043e-03 6.962294e-04 6.959017e-04 5.717442e-03 7.853887e-03 6.107516e-03 
    64.5                2.093298e-03 2.092151e-03 1.289544e-03 7.214075e-04 3.767561e-03 1.791162e-06 2.089166e-03 5.337330e-04 5.334278e-04 4.533035e-03 6.286176e-03 4.847467e-03 
    65.5                1.645746e-03 1.644162e-03 9.579970e-04 5.209437e-04 2.876747e-03 1.417144e-06 1.642007e-03 3.919520e-04 3.917778e-04 3.431280e-03 4.874148e-03 3.756192e-03 
    66.5                1.194993e-03 1.193262e-03 6.646530e-04 3.514655e-04 2.045723e-03 1.060454e-06 1.191952e-03 2.642781e-04 2.641268e-04 2.421788e-03 3.507299e-03 2.696268e-03 
    67.5                7.799335e-04 7.791420e-04 4.069683e-04 2.045912e-04 1.310984e-03 7.134226e-07 7.784069e-04 1.580357e-04 1.579805e-04 1.533225e-03 2.273687e-03 1.734629e-03 
    68.5                4.687761e-04 4.684002e-04 2.206904e-04 1.057920e-04 7.374966e-04 4.472576e-07 4.680190e-04 8.039019e-05 8.034886e-05 8.549025e-04 1.328247e-03 1.023215e-03 
    69.5                2.238172e-04 2.224495e-04 9.229454e-05 4.113419e-05 3.260998e-04 2.300264e-07 2.224284e-04 3.183762e-05 3.180434e-05 3.735292e-04 6.141704e-04 4.778932e-04 
    70.5                7.136388e-05 7.082284e-05 2.311668e-05 1.024347e-05 8.368454e-05 9.329397e-08 7.080084e-05 7.963733e-06 7.954376e-06 9.615667e-05 1.819381e-04 1.486230e-04 
    71.5                1.161894e-05 1.149666e-05 2.799908e-06 1.086421e-06 1.106361e-05 1.857083e-08 1.149081e-05 1.051414e-06 1.048819e-06 1.248403e-05 2.789942e-05 2.368600e-05 
    72.5                6.817107e-07 6.698549e-07 6.665058e-08 3.006376e-08 2.428841e-07 1.840568e-09 6.683626e-07 3.243459e-08 3.221171e-08 2.834921e-07 1.391144e-06 1.356515e-06 
    73.5                0.000000e+00 0.000000e+00 0.000000e+00 0.000000e+00 0.000000e+00 0.000000e+00 0.000000e+00 0.000000e+00 0.000000e+00 0.000000e+00 0.000000e+00 0.000000e+00 
    74.5                0.000000e+00 0.000000e+00 0.000000e+00 0.000000e+00 0.000000e+00 0.000000e+00 0.000000e+00 0.000000e+00 0.000000e+00 0.000000e+00 0.000000e+00 0.000000e+00 
    75.5                0.000000e+00 0.000000e+00 0.000000e+00 0.000000e+00 0.000000e+00 0.000000e+00 0.000000e+00 0.000000e+00 0.000000e+00 0.000000e+00 0.000000e+00 0.000000e+00 
    76.5                0.000000e+00 0.000000e+00 0.000000e+00 0.000000e+00 0.000000e+00 0.000000e+00 0.000000e+00 0.000000e+00 0.000000e+00 0.000000e+00 0.000000e+00 0.000000e+00 
    77.5                0.000000e+00 0.000000e+00 0.000000e+00 0.000000e+00 0.000000e+00 0.000000e+00 0.000000e+00 0.000000e+00 0.000000e+00 0.000000e+00 0.000000e+00 0.000000e+00 
    78.5                0.000000e+00 0.000000e+00 0.000000e+00 0.000000e+00 0.000000e+00 0.000000e+00 0.000000e+00 0.000000e+00 0.000000e+00 0.000000e+00 0.000000e+00 0.000000e+00 
    79.5                0.000000e+00 0.000000e+00 0.000000e+00 0.000000e+00 0.000000e+00 0.000000e+00 0.000000e+00 0.000000e+00 0.000000e+00 0.000000e+00 0.000000e+00 0.000000e+00 


