# 80 rows of flux data
# 12 columns of flux data
# 
# total cross-sectional flux  1.056189e+00 /m^2/yr
#
#                             +x ram      -x wake      +y port -y starboard    +z zenith     -z nadir        Earth          Sun     anti-Sun      rot (x)      rot (y)      rot (z) 
# average speed (km/s)         36.87        38.15        38.59        27.81        35.33        33.58        28.02        28.14        27.61        33.67        36.40        34.35 
# total flux (#/m2/yr)  2.610823e-01 2.187932e-01 2.378404e-01 3.668556e-01 4.939262e-01 4.058694e-04 5.707535e-02 1.743397e-01 1.669808e-01 8.743298e-01 7.669456e-01 8.455735e-01 
# velocity (km/s)
     0.5                0.000000e+00 0.000000e+00 0.000000e+00 0.000000e+00 0.000000e+00 0.000000e+00 0.000000e+00 0.000000e+00 0.000000e+00 0.000000e+00 0.000000e+00 0.000000e+00 
     1.5                0.000000e+00 0.000000e+00 0.000000e+00 0.000000e+00 0.000000e+00 0.000000e+00 0.000000e+00 0.000000e+00 0.000000e+00 0.000000e+00 0.000000e+00 0.000000e+00 
     2.5                2.743509e-05 1.196958e-04 7.604048e-05 7.774214e-05 1.559012e-04 6.916397e-08 1.391750e-05 8.282896e-05 7.431406e-05 2.452246e-04 2.401226e-04 2.364920e-04 
     3.5                3.356702e-04 4.748141e-04 4.125123e-04 3.447266e-04 7.975034e-04 4.071317e-07 6.206394e-05 4.391437e-04 4.019054e-04 1.231443e-03 1.269244e-03 1.231267e-03 
     4.5                9.453897e-04 8.481729e-04 9.209660e-04 7.786399e-04 1.713807e-03 1.016404e-06 1.299080e-04 9.787560e-04 9.310957e-04 2.703754e-03 2.768264e-03 2.741514e-03 
     5.5                1.622629e-03 1.266947e-03 1.481184e-03 1.397132e-03 2.743633e-03 1.839421e-06 2.301619e-04 1.627498e-03 1.573833e-03 4.458566e-03 4.441779e-03 4.516634e-03 
     6.5                2.311255e-03 1.648170e-03 2.006587e-03 2.235539e-03 3.852822e-03 2.712691e-06 3.505829e-04 2.276608e-03 2.233010e-03 6.411131e-03 6.159869e-03 6.422200e-03 
     7.5                2.894430e-03 2.020893e-03 2.455422e-03 3.217521e-03 4.911792e-03 3.631026e-06 5.002446e-04 2.874485e-03 2.836721e-03 8.377325e-03 7.746541e-03 8.297929e-03 
     8.5                3.426000e-03 2.364005e-03 2.848084e-03 4.210816e-03 5.903776e-03 4.446013e-06 6.420660e-04 3.419666e-03 3.400200e-03 1.024655e-02 9.214963e-03 1.006955e-02 
     9.5                3.849143e-03 2.625482e-03 3.142536e-03 5.237765e-03 6.794256e-03 5.221176e-06 8.004289e-04 3.906241e-03 3.881872e-03 1.198564e-02 1.045241e-02 1.165799e-02 
    10.5                4.193603e-03 2.932610e-03 3.398650e-03 6.262689e-03 7.613193e-03 5.929199e-06 9.512058e-04 4.375395e-03 4.330072e-03 1.363475e-02 1.161134e-02 1.318636e-02 
    11.5                4.567021e-03 3.162643e-03 3.615028e-03 7.535670e-03 8.544328e-03 6.597201e-06 1.125826e-03 4.848903e-03 4.784284e-03 1.551430e-02 1.281725e-02 1.485785e-02 
    12.5                4.842737e-03 3.339631e-03 3.776454e-03 8.517256e-03 9.186893e-03 7.290192e-06 1.287626e-03 5.190800e-03 5.112630e-03 1.692279e-02 1.367634e-02 1.612147e-02 
    13.5                5.008475e-03 3.373720e-03 3.747222e-03 9.505977e-03 9.682318e-03 7.595884e-06 1.410602e-03 5.327273e-03 5.246614e-03 1.802344e-02 1.423169e-02 1.708178e-02 
    14.5                4.902197e-03 3.498291e-03 3.712202e-03 1.004701e-02 9.928348e-03 7.622885e-06 1.473230e-03 5.388674e-03 5.296917e-03 1.858864e-02 1.444011e-02 1.752908e-02 
    15.5                5.061126e-03 3.560128e-03 3.713537e-03 1.106781e-02 1.044686e-02 7.971348e-06 1.624106e-03 5.505989e-03 5.413196e-03 1.977584e-02 1.502145e-02 1.854215e-02 
    16.5                5.012622e-03 3.610510e-03 3.672067e-03 1.134883e-02 1.054207e-02 7.973352e-06 1.656666e-03 5.517949e-03 5.424873e-03 2.002738e-02 1.509323e-02 1.873714e-02 
    17.5                5.031821e-03 3.625054e-03 3.679038e-03 1.175646e-02 1.069977e-02 8.353630e-06 1.720168e-03 5.489846e-03 5.391406e-03 2.047920e-02 1.524984e-02 1.910449e-02 
    18.5                4.998383e-03 3.689486e-03 3.645740e-03 1.220615e-02 1.085982e-02 8.509744e-06 1.792251e-03 5.453602e-03 5.351383e-03 2.092569e-02 1.539819e-02 1.946510e-02 
    19.5                4.953516e-03 3.669595e-03 3.594556e-03 1.232610e-02 1.085109e-02 8.412628e-06 1.835569e-03 5.339053e-03 5.234767e-03 2.098500e-02 1.532177e-02 1.944320e-02 
    20.5                4.883076e-03 3.620504e-03 3.523633e-03 1.224187e-02 1.060266e-02 8.872646e-06 1.852565e-03 5.156620e-03 5.052946e-03 2.069771e-02 1.503033e-02 1.920241e-02 
    21.5                4.735766e-03 3.672621e-03 3.547699e-03 1.232678e-02 1.059147e-02 9.184002e-06 1.855827e-03 5.020198e-03 4.911577e-03 2.078359e-02 1.495145e-02 1.921055e-02 
    22.5                4.803616e-03 3.597776e-03 3.544109e-03 1.256205e-02 1.065021e-02 9.387224e-06 1.911783e-03 4.900047e-03 4.787626e-03 2.102740e-02 1.499236e-02 1.938374e-02 
    23.5                4.582108e-03 3.454584e-03 3.365469e-03 1.190532e-02 1.004641e-02 9.253578e-06 1.829477e-03 4.589735e-03 4.485568e-03 1.991401e-02 1.421370e-02 1.839305e-02 
    24.5                4.322414e-03 3.375254e-03 3.279902e-03 1.137980e-02 9.590814e-03 9.270229e-06 1.776222e-03 4.321393e-03 4.217332e-03 1.910684e-02 1.358464e-02 1.761499e-02 
    25.5                4.228753e-03 3.286132e-03 3.164717e-03 1.116830e-02 9.315486e-03 9.292836e-06 1.772359e-03 4.089924e-03 3.989230e-03 1.865135e-02 1.321213e-02 1.718949e-02 
    26.5                4.049916e-03 3.263657e-03 3.155929e-03 1.065859e-02 8.975315e-03 9.237357e-06 1.713921e-03 3.880264e-03 3.775744e-03 1.800923e-02 1.278136e-02 1.658257e-02 
    27.5                3.989303e-03 3.138000e-03 3.137626e-03 1.012446e-02 8.601401e-03 9.076728e-06 1.648290e-03 3.673191e-03 3.567660e-03 1.731406e-02 1.233444e-02 1.594431e-02 
    28.5                3.812583e-03 3.073177e-03 3.099992e-03 9.588382e-03 8.195671e-03 8.952122e-06 1.566695e-03 3.408320e-03 3.301306e-03 1.656736e-02 1.182919e-02 1.526590e-02 
    29.5                3.671578e-03 2.851461e-03 2.964241e-03 9.026054e-03 7.740226e-03 8.405920e-06 1.477285e-03 3.095235e-03 2.991210e-03 1.566127e-02 1.118452e-02 1.441264e-02 
    30.5                3.398930e-03 2.780083e-03 2.787688e-03 8.625905e-03 7.329031e-03 8.028288e-06 1.412728e-03 2.869617e-03 2.772275e-03 1.487965e-02 1.058475e-02 1.368367e-02 
    31.5                3.291290e-03 2.775816e-03 2.843008e-03 8.245582e-03 7.086036e-03 8.243697e-06 1.376421e-03 2.705979e-03 2.605793e-03 1.447619e-02 1.030993e-02 1.330317e-02 
    32.5                3.206493e-03 2.668292e-03 2.829650e-03 7.596626e-03 6.700236e-03 7.987125e-06 1.269070e-03 2.489565e-03 2.388105e-03 1.366701e-02 9.856692e-03 1.258382e-02 
    33.5                3.115895e-03 2.730792e-03 2.904758e-03 7.166523e-03 6.522321e-03 7.815903e-06 1.204319e-03 2.308134e-03 2.200657e-03 1.327307e-02 9.697237e-03 1.223906e-02 
    34.5                3.172501e-03 2.735546e-03 2.964681e-03 7.148840e-03 6.560643e-03 7.771051e-06 1.209423e-03 2.220705e-03 2.111051e-03 1.335348e-02 9.777999e-03 1.229981e-02 
    35.5                3.055092e-03 2.641754e-03 2.966767e-03 6.348555e-03 6.142304e-03 7.328324e-06 1.064152e-03 2.077726e-03 1.967888e-03 1.241000e-02 9.287230e-03 1.147067e-02 
    36.5                2.963047e-03 2.697663e-03 3.042008e-03 6.047809e-03 6.048169e-03 7.300281e-06 1.009974e-03 1.946386e-03 1.832982e-03 1.217470e-02 9.194925e-03 1.125096e-02 
    37.5                3.087884e-03 2.780419e-03 3.124709e-03 6.045853e-03 6.155147e-03 7.378348e-06 1.011322e-03 1.889490e-03 1.773948e-03 1.233444e-02 9.443866e-03 1.145675e-02 
    38.5                2.997270e-03 2.983705e-03 3.249724e-03 5.686991e-03 6.182073e-03 7.081809e-06 9.421916e-04 1.816686e-03 1.695079e-03 1.218514e-02 9.553423e-03 1.133180e-02 
    39.5                3.233725e-03 2.872312e-03 3.409926e-03 5.442250e-03 6.260476e-03 6.953798e-06 8.931770e-04 1.765827e-03 1.638387e-03 1.219922e-02 9.721423e-03 1.135016e-02 
    40.5                3.181358e-03 2.963281e-03 3.423118e-03 5.256139e-03 6.164228e-03 6.919400e-06 8.584294e-04 1.694491e-03 1.568953e-03 1.199255e-02 9.684364e-03 1.123283e-02 
    41.5                3.214472e-03 3.269958e-03 3.670557e-03 5.035475e-03 6.415117e-03 6.768146e-06 8.077381e-04 1.677249e-03 1.541908e-03 1.222540e-02 1.015008e-02 1.148637e-02 
    42.5                3.498337e-03 3.172805e-03 3.839252e-03 4.646126e-03 6.525331e-03 6.518849e-06 7.331167e-04 1.670177e-03 1.529159e-03 1.215001e-02 1.039469e-02 1.145882e-02 
    43.5                3.399742e-03 3.355056e-03 3.786605e-03 4.302445e-03 6.392081e-03 6.255320e-06 6.757614e-04 1.618116e-03 1.480734e-03 1.172980e-02 1.035504e-02 1.122106e-02 
    44.5                3.556477e-03 3.690599e-03 4.150263e-03 4.252363e-03 6.899886e-03 6.315931e-06 6.574059e-04 1.671066e-03 1.520253e-03 1.241704e-02 1.115120e-02 1.184332e-02 
    45.5                3.921045e-03 3.664689e-03 4.283758e-03 4.124322e-03 7.080084e-03 6.339722e-06 6.330992e-04 1.673158e-03 1.520590e-03 1.258494e-02 1.156110e-02 1.211404e-02 
    46.5                3.839217e-03 3.761978e-03 4.334072e-03 3.873414e-03 7.085499e-03 6.108316e-06 5.858964e-04 1.636396e-03 1.483586e-03 1.242645e-02 1.158293e-02 1.198783e-02 
    47.5                3.981663e-03 4.010802e-03 4.494885e-03 3.705972e-03 7.321582e-03 6.033308e-06 5.543653e-04 1.657588e-03 1.500744e-03 1.260005e-02 1.208244e-02 1.230369e-02 
    48.5                4.072760e-03 4.392283e-03 4.735513e-03 3.484069e-03 7.762060e-03 5.919377e-06 5.179149e-04 1.708188e-03 1.543401e-03 1.297012e-02 1.279865e-02 1.272128e-02 
    49.5                4.506738e-03 4.825914e-03 5.103083e-03 3.411558e-03 8.351816e-03 6.125594e-06 5.040522e-04 1.773493e-03 1.597535e-03 1.369436e-02 1.395126e-02 1.365757e-02 
    50.5                4.799157e-03 5.521254e-03 5.613412e-03 3.292067e-03 9.208866e-03 6.369098e-06 4.851624e-04 1.865634e-03 1.672735e-03 1.470152e-02 1.541492e-02 1.478390e-02 
    51.5                5.474250e-03 6.076110e-03 6.280683e-03 3.133289e-03 1.036089e-02 6.588708e-06 4.603515e-04 1.960840e-03 1.746774e-03 1.599562e-02 1.729464e-02 1.619651e-02 
    52.5                6.169916e-03 6.074687e-03 6.554821e-03 2.882139e-03 1.086262e-02 6.673876e-06 4.257075e-04 2.010628e-03 1.790132e-03 1.637267e-02 1.823714e-02 1.682053e-02 
    53.5                6.281361e-03 6.157116e-03 6.586226e-03 2.604640e-03 1.094238e-02 6.548477e-06 3.862815e-04 2.025176e-03 1.807386e-03 1.619848e-02 1.845671e-02 1.683574e-02 
    54.5                6.394642e-03 5.802375e-03 6.459971e-03 2.345808e-03 1.076722e-02 6.236178e-06 3.490355e-04 2.001422e-03 1.791493e-03 1.572646e-02 1.813259e-02 1.638507e-02 
    55.5                6.326765e-03 5.845838e-03 6.291927e-03 2.177399e-03 1.050483e-02 6.157157e-06 3.260753e-04 1.968721e-03 1.767684e-03 1.523313e-02 1.790150e-02 1.613309e-02 
    56.5                6.184840e-03 5.572537e-03 6.149384e-03 1.964029e-03 1.027775e-02 5.797222e-06 2.945967e-04 1.920177e-03 1.727080e-03 1.475844e-02 1.739515e-02 1.556167e-02 
    57.5                5.957242e-03 5.087374e-03 5.703109e-03 1.730244e-03 9.563033e-03 5.416095e-06 2.624157e-04 1.819337e-03 1.643556e-03 1.362818e-02 1.627861e-02 1.450087e-02 
    58.5                5.479651e-03 4.877577e-03 5.317322e-03 1.490879e-03 8.945398e-03 4.953780e-06 2.287360e-04 1.682239e-03 1.521260e-03 1.261413e-02 1.523963e-02 1.349491e-02 
    59.5                5.177625e-03 4.649978e-03 5.046842e-03 1.290478e-03 8.506493e-03 4.601438e-06 1.995901e-04 1.545972e-03 1.395455e-03 1.187704e-02 1.447282e-02 1.274019e-02 
    60.5                4.996446e-03 4.225966e-03 4.696672e-03 1.129396e-03 7.935675e-03 4.287142e-06 1.771125e-04 1.382267e-03 1.244569e-03 1.098790e-02 1.354840e-02 1.187867e-02 
    61.5                4.528774e-03 3.680036e-03 4.222368e-03 8.968300e-04 7.159402e-03 3.723492e-06 1.428539e-04 1.211116e-03 1.089394e-03 9.775354e-03 1.213894e-02 1.054891e-02 
    62.5                4.179144e-03 3.015582e-03 3.601470e-03 7.273516e-04 6.117985e-03 3.258934e-06 1.180336e-04 1.032238e-03 9.305763e-04 8.296046e-03 1.051107e-02 9.133775e-03 
    63.5                3.413807e-03 2.456051e-03 2.931885e-03 5.352439e-04 4.991841e-03 2.619607e-06 8.825865e-05 8.475780e-04 7.662558e-04 6.708398e-03 8.577410e-03 7.421442e-03 
    64.5                2.811753e-03 1.965970e-03 2.373800e-03 4.114973e-04 4.046822e-03 2.132037e-06 6.888176e-05 6.717511e-04 6.071843e-04 5.408803e-03 6.970825e-03 6.017958e-03 
    65.5                2.233479e-03 1.500142e-03 1.866710e-03 2.916895e-04 3.188393e-03 1.625452e-06 4.977279e-05 5.074994e-04 4.575834e-04 4.219493e-03 5.467335e-03 4.694828e-03 
    66.5                1.789934e-03 1.066083e-03 1.412637e-03 2.023708e-04 2.415799e-03 1.235849e-06 3.523865e-05 3.644489e-04 3.273795e-04 3.170268e-03 4.163436e-03 3.567992e-03 
    67.5                1.314380e-03 6.821257e-04 9.740851e-04 1.269410e-04 1.667877e-03 8.670815e-07 2.267700e-05 2.375118e-04 2.125434e-04 2.168460e-03 2.895369e-03 2.476773e-03 
    68.5                8.837937e-04 3.822019e-04 6.131785e-04 7.025103e-05 1.051140e-03 5.464339e-07 1.294706e-05 1.372113e-04 1.217796e-04 1.350439e-03 1.831218e-03 1.561363e-03 
    69.5                5.408702e-04 1.687200e-04 3.345027e-04 3.390202e-05 5.738403e-04 3.032862e-07 6.512559e-06 6.717823e-05 5.896052e-05 7.290020e-04 1.013736e-03 8.649104e-04 
    70.5                2.710732e-04 4.298522e-05 1.407447e-04 1.280114e-05 2.414728e-04 1.406396e-07 2.581195e-06 2.560443e-05 2.224165e-05 3.035055e-04 4.395856e-04 3.767481e-04 
    71.5                9.834936e-05 5.645291e-06 3.804472e-05 3.607413e-06 6.518451e-05 5.217955e-08 7.990782e-07 6.498382e-06 5.624923e-06 8.173001e-05 1.343971e-04 1.187475e-04 
    72.5                1.720107e-05 1.184346e-07 5.210144e-06 4.413378e-07 8.913891e-06 1.000082e-08 1.167547e-07 9.122412e-07 7.989345e-07 1.105180e-05 2.104557e-05 1.904612e-05 
    73.5                1.317601e-06 0.000000e+00 2.553435e-07 1.284075e-08 4.370753e-07 8.988121e-10 6.540371e-09 3.882784e-08 3.347078e-08 5.283555e-07 1.433284e-06 1.362849e-06 
    74.5                0.000000e+00 0.000000e+00 0.000000e+00 0.000000e+00 0.000000e+00 0.000000e+00 0.000000e+00 0.000000e+00 0.000000e+00 0.000000e+00 0.000000e+00 0.000000e+00 
    75.5                0.000000e+00 0.000000e+00 0.000000e+00 0.000000e+00 0.000000e+00 0.000000e+00 0.000000e+00 0.000000e+00 0.000000e+00 0.000000e+00 0.000000e+00 0.000000e+00 
    76.5                0.000000e+00 0.000000e+00 0.000000e+00 0.000000e+00 0.000000e+00 0.000000e+00 0.000000e+00 0.000000e+00 0.000000e+00 0.000000e+00 0.000000e+00 0.000000e+00 
    77.5                0.000000e+00 0.000000e+00 0.000000e+00 0.000000e+00 0.000000e+00 0.000000e+00 0.000000e+00 0.000000e+00 0.000000e+00 0.000000e+00 0.000000e+00 0.000000e+00 
    78.5                0.000000e+00 0.000000e+00 0.000000e+00 0.000000e+00 0.000000e+00 0.000000e+00 0.000000e+00 0.000000e+00 0.000000e+00 0.000000e+00 0.000000e+00 0.000000e+00 
    79.5                0.000000e+00 0.000000e+00 0.000000e+00 0.000000e+00 0.000000e+00 0.000000e+00 0.000000e+00 0.000000e+00 0.000000e+00 0.000000e+00 0.000000e+00 0.000000e+00 


