# 80 rows of flux data
# 12 columns of flux data
# 
# total cross-sectional flux  2.025492e+00 /m^2/yr
#
#                             +x ram      -x wake      +y port -y starboard    +z zenith     -z nadir        Earth          Sun     anti-Sun      rot (x)      rot (y)      rot (z) 
# average speed (km/s)         23.99        23.99        23.10        17.49        23.80        23.54        23.99        24.29        24.29        23.19        23.90        23.54 
# total flux (#/m2/yr)  6.317351e-01 6.312500e-01 4.629599e-01 1.110797e-01 1.127390e+00 5.274232e-04 6.249811e-01 8.866127e-01 8.862967e-01 1.343970e+00 1.887433e+00 1.494504e+00 
# velocity (km/s)
     0.5                0.000000e+00 0.000000e+00 0.000000e+00 0.000000e+00 0.000000e+00 0.000000e+00 0.000000e+00 0.000000e+00 0.000000e+00 0.000000e+00 0.000000e+00 0.000000e+00 
     1.5                0.000000e+00 0.000000e+00 0.000000e+00 0.000000e+00 0.000000e+00 0.000000e+00 0.000000e+00 0.000000e+00 0.000000e+00 0.000000e+00 0.000000e+00 0.000000e+00 
     2.5                9.199199e-07 9.640849e-07 1.559750e-06 3.501077e-08 5.597918e-06 0.000000e+00 9.554587e-07 7.275919e-07 7.144463e-07 5.870032e-06 6.048957e-06 2.682914e-06 
     3.5                7.495769e-05 7.622923e-05 6.623784e-05 1.224708e-05 1.913823e-04 1.719009e-08 7.581521e-05 5.697875e-05 5.689479e-05 2.157191e-04 2.674060e-04 1.863129e-04 
     4.5                4.108783e-04 4.138570e-04 3.874664e-04 1.142798e-04 9.402028e-04 1.934360e-07 4.112852e-04 3.271420e-04 3.267562e-04 1.138708e-03 1.383926e-03 1.057762e-03 
     5.5                1.311917e-03 1.316492e-03 1.214619e-03 4.785793e-04 2.665353e-03 8.496104e-07 1.309275e-03 1.143269e-03 1.141561e-03 3.425058e-03 4.160381e-03 3.418080e-03 
     6.5                2.596899e-03 2.598937e-03 2.380502e-03 1.053265e-03 5.060035e-03 2.038223e-06 2.584564e-03 2.360704e-03 2.358604e-03 6.673219e-03 8.081346e-03 6.791828e-03 
     7.5                4.602921e-03 4.607654e-03 4.285074e-03 1.959016e-03 9.020580e-03 3.705046e-06 4.582909e-03 4.302764e-03 4.299584e-03 1.200465e-02 1.435545e-02 1.216748e-02 
     8.5                7.178273e-03 7.179357e-03 6.388508e-03 2.937284e-03 1.349897e-02 6.057034e-06 7.139363e-03 6.884092e-03 6.881632e-03 1.795647e-02 2.194996e-02 1.865258e-02 
     9.5                9.463956e-03 9.461475e-03 8.436517e-03 4.196198e-03 1.726218e-02 8.756447e-06 9.403465e-03 9.786134e-03 9.783007e-03 2.349254e-02 2.856991e-02 2.480382e-02 
    10.5                1.148321e-02 1.147967e-02 1.032509e-02 5.380966e-03 2.104154e-02 1.093629e-05 1.139931e-02 1.297133e-02 1.296797e-02 2.890370e-02 3.473650e-02 3.037406e-02 
    11.5                1.344672e-02 1.343550e-02 1.179688e-02 6.451538e-03 2.423314e-02 1.325721e-05 1.333572e-02 1.598016e-02 1.597477e-02 3.344589e-02 4.035936e-02 3.547378e-02 
    12.5                1.468305e-02 1.466979e-02 1.280992e-02 6.954163e-03 2.656496e-02 1.478725e-05 1.454884e-02 1.850899e-02 1.850261e-02 3.651467e-02 4.417178e-02 3.872864e-02 
    13.5                1.647172e-02 1.646360e-02 1.419798e-02 7.352890e-03 3.012370e-02 1.619751e-05 1.631924e-02 2.160762e-02 2.159930e-02 4.076900e-02 4.976025e-02 4.306033e-02 
    14.5                1.821119e-02 1.820056e-02 1.523737e-02 7.402447e-03 3.320687e-02 1.760532e-05 1.803220e-02 2.457186e-02 2.456427e-02 4.410298e-02 5.494845e-02 4.681830e-02 
    15.5                1.984194e-02 1.982751e-02 1.619980e-02 7.187703e-03 3.600812e-02 1.849523e-05 1.963709e-02 2.744192e-02 2.743219e-02 4.692127e-02 5.973604e-02 5.021481e-02 
    16.5                2.128066e-02 2.126791e-02 1.702936e-02 6.985141e-03 3.852463e-02 1.946775e-05 2.105730e-02 2.988873e-02 2.987831e-02 4.944138e-02 6.398765e-02 5.316612e-02 
    17.5                2.256855e-02 2.255630e-02 1.775734e-02 6.447920e-03 4.091126e-02 2.002394e-05 2.232499e-02 3.238304e-02 3.237229e-02 5.150281e-02 6.790767e-02 5.556423e-02 
    18.5                2.368405e-02 2.366541e-02 1.824813e-02 5.912115e-03 4.264036e-02 2.045508e-05 2.341896e-02 3.435009e-02 3.433699e-02 5.284899e-02 7.103427e-02 5.750204e-02 
    19.5                2.439449e-02 2.437928e-02 1.856571e-02 5.500181e-03 4.393385e-02 2.075646e-05 2.412122e-02 3.574612e-02 3.573351e-02 5.380174e-02 7.318717e-02 5.870922e-02 
    20.5                2.501731e-02 2.500591e-02 1.875281e-02 4.943363e-03 4.509503e-02 2.082654e-05 2.473590e-02 3.691118e-02 3.689822e-02 5.444979e-02 7.508096e-02 5.961703e-02 
    21.5                2.594523e-02 2.593234e-02 1.927415e-02 4.416311e-03 4.686097e-02 2.104362e-05 2.564873e-02 3.854750e-02 3.853415e-02 5.584708e-02 7.792343e-02 6.126944e-02 
    22.5                2.670131e-02 2.668527e-02 1.949975e-02 4.100820e-03 4.799312e-02 2.153655e-05 2.639346e-02 3.973641e-02 3.972271e-02 5.669332e-02 8.002150e-02 6.259786e-02 
    23.5                2.697253e-02 2.695571e-02 1.944614e-02 3.572395e-03 4.837721e-02 2.155335e-05 2.665986e-02 4.013812e-02 4.012511e-02 5.654311e-02 8.075581e-02 6.272332e-02 
    24.5                2.709647e-02 2.707974e-02 1.931468e-02 3.125784e-03 4.857722e-02 2.141278e-05 2.678219e-02 4.031499e-02 4.030015e-02 5.624687e-02 8.110848e-02 6.262628e-02 
    25.5                2.704969e-02 2.703194e-02 1.900121e-02 2.674623e-03 4.832610e-02 2.124760e-05 2.673640e-02 4.015867e-02 4.014461e-02 5.543816e-02 8.084166e-02 6.209844e-02 
    26.5                2.647509e-02 2.645414e-02 1.836676e-02 2.296215e-03 4.709038e-02 2.082619e-05 2.616696e-02 3.917063e-02 3.915658e-02 5.364191e-02 7.897534e-02 6.048982e-02 
    27.5                2.575217e-02 2.573386e-02 1.772989e-02 1.943075e-03 4.587254e-02 2.007274e-05 2.545450e-02 3.803853e-02 3.802589e-02 5.188262e-02 7.686522e-02 5.861078e-02 
    28.5                2.496635e-02 2.494682e-02 1.700973e-02 1.655028e-03 4.431819e-02 1.943233e-05 2.467889e-02 3.669446e-02 3.668112e-02 4.983501e-02 7.439958e-02 5.661615e-02 
    29.5                2.385235e-02 2.383300e-02 1.610305e-02 1.374102e-03 4.224617e-02 1.854848e-05 2.357908e-02 3.489492e-02 3.488205e-02 4.723959e-02 7.101307e-02 5.390299e-02 
    30.5                2.260334e-02 2.258430e-02 1.512445e-02 1.114919e-03 3.994276e-02 1.753693e-05 2.234663e-02 3.287962e-02 3.286934e-02 4.440986e-02 6.722704e-02 5.091693e-02 
    31.5                2.114974e-02 2.112977e-02 1.402093e-02 8.877293e-04 3.725191e-02 1.643086e-05 2.091033e-02 3.054360e-02 3.053236e-02 4.119700e-02 6.281389e-02 4.749800e-02 
    32.5                1.949349e-02 1.947361e-02 1.279472e-02 6.985737e-04 3.415820e-02 1.520490e-05 1.927542e-02 2.789021e-02 2.788047e-02 3.760748e-02 5.776417e-02 4.365819e-02 
    33.5                1.758782e-02 1.756837e-02 1.145152e-02 5.517731e-04 3.068046e-02 1.380462e-05 1.739260e-02 2.493865e-02 2.492906e-02 3.366258e-02 5.201590e-02 3.930697e-02 
    34.5                1.565974e-02 1.564080e-02 1.011930e-02 4.270395e-04 2.720568e-02 1.232036e-05 1.548742e-02 2.200467e-02 2.199675e-02 2.974673e-02 4.623029e-02 3.492633e-02 
    35.5                1.370829e-02 1.369144e-02 8.799459e-03 3.163941e-04 2.374198e-02 1.082338e-05 1.355953e-02 1.907690e-02 1.906944e-02 2.586483e-02 4.041982e-02 3.051954e-02 
    36.5                1.183887e-02 1.182335e-02 7.532065e-03 2.263774e-04 2.038652e-02 9.395816e-06 1.171247e-02 1.628372e-02 1.627840e-02 2.213314e-02 3.481589e-02 2.629978e-02 
    37.5                9.999240e-03 9.984388e-03 6.312955e-03 1.594390e-04 1.713158e-02 7.978323e-06 9.892837e-03 1.359594e-02 1.359121e-02 1.854530e-02 2.934239e-02 2.217445e-02 
    38.5                8.220100e-03 8.205805e-03 5.121635e-03 1.083303e-04 1.392917e-02 6.648515e-06 8.133169e-03 1.100979e-02 1.100571e-02 1.503989e-02 2.400696e-02 1.818260e-02 
    39.5                6.473076e-03 6.460356e-03 3.975016e-03 6.957123e-05 1.083124e-02 5.333866e-06 6.405374e-03 8.527067e-03 8.523658e-03 1.166787e-02 1.880461e-02 1.428187e-02 
    40.5                4.857547e-03 4.846445e-03 2.934697e-03 4.262699e-05 8.008933e-03 4.091082e-06 4.806997e-03 6.288777e-03 6.286468e-03 8.610547e-03 1.402519e-02 1.068898e-02 
    41.5                3.468193e-03 3.459932e-03 2.067904e-03 2.449560e-05 5.651431e-03 2.979206e-06 3.432784e-03 4.417931e-03 4.415935e-03 6.064838e-03 9.966106e-03 7.616083e-03 
    42.5                2.361914e-03 2.355274e-03 1.379575e-03 1.330425e-05 3.774438e-03 2.073460e-06 2.337776e-03 2.947522e-03 2.946716e-03 4.044577e-03 6.732133e-03 5.170657e-03 
    43.5                1.469083e-03 1.464055e-03 8.264821e-04 6.802272e-06 2.262756e-03 1.349915e-06 1.453973e-03 1.783993e-03 1.783231e-03 2.422204e-03 4.126009e-03 3.199663e-03 
    44.5                8.012366e-04 7.975411e-04 4.302613e-04 3.016060e-06 1.178610e-03 7.789838e-07 7.925491e-04 9.431265e-04 9.426929e-04 1.260577e-03 2.209787e-03 1.734111e-03 
    45.5                3.604705e-04 3.583836e-04 1.788275e-04 1.163042e-06 4.898592e-04 3.833145e-07 3.564505e-04 4.069116e-04 4.065215e-04 5.237609e-04 9.650523e-04 7.727220e-04 
    46.5                1.178041e-04 1.168745e-04 5.260635e-05 3.628129e-07 1.440340e-04 1.456632e-07 1.163434e-04 1.267009e-04 1.266929e-04 1.540371e-04 3.045396e-04 2.497910e-04 
    47.5                2.686228e-05 2.663388e-05 1.033542e-05 7.791224e-08 2.827654e-05 3.847084e-08 2.653253e-05 2.726152e-05 2.723623e-05 3.025713e-05 6.630482e-05 5.619564e-05 
    48.5                3.432372e-06 3.395787e-06 9.468583e-07 1.073738e-08 2.581890e-06 6.109883e-09 3.386163e-06 3.144746e-06 3.148854e-06 2.770733e-06 7.751251e-06 7.003373e-06 
    49.5                7.791490e-08 7.802039e-08 8.629149e-09 3.629941e-10 2.315032e-08 2.165072e-10 7.782353e-08 6.344023e-08 6.371485e-08 2.537279e-08 1.587750e-07 1.563456e-07 
    50.5                0.000000e+00 0.000000e+00 0.000000e+00 0.000000e+00 0.000000e+00 0.000000e+00 0.000000e+00 0.000000e+00 0.000000e+00 0.000000e+00 0.000000e+00 0.000000e+00 
    51.5                0.000000e+00 0.000000e+00 0.000000e+00 0.000000e+00 0.000000e+00 0.000000e+00 0.000000e+00 0.000000e+00 0.000000e+00 0.000000e+00 0.000000e+00 0.000000e+00 
    52.5                0.000000e+00 0.000000e+00 0.000000e+00 0.000000e+00 0.000000e+00 0.000000e+00 0.000000e+00 0.000000e+00 0.000000e+00 0.000000e+00 0.000000e+00 0.000000e+00 
    53.5                0.000000e+00 0.000000e+00 0.000000e+00 0.000000e+00 0.000000e+00 0.000000e+00 0.000000e+00 0.000000e+00 0.000000e+00 0.000000e+00 0.000000e+00 0.000000e+00 
    54.5                0.000000e+00 0.000000e+00 0.000000e+00 0.000000e+00 0.000000e+00 0.000000e+00 0.000000e+00 0.000000e+00 0.000000e+00 0.000000e+00 0.000000e+00 0.000000e+00 
    55.5                0.000000e+00 0.000000e+00 0.000000e+00 0.000000e+00 0.000000e+00 0.000000e+00 0.000000e+00 0.000000e+00 0.000000e+00 0.000000e+00 0.000000e+00 0.000000e+00 
    56.5                0.000000e+00 0.000000e+00 0.000000e+00 0.000000e+00 0.000000e+00 0.000000e+00 0.000000e+00 0.000000e+00 0.000000e+00 0.000000e+00 0.000000e+00 0.000000e+00 
    57.5                0.000000e+00 0.000000e+00 0.000000e+00 0.000000e+00 0.000000e+00 0.000000e+00 0.000000e+00 0.000000e+00 0.000000e+00 0.000000e+00 0.000000e+00 0.000000e+00 
    58.5                0.000000e+00 0.000000e+00 0.000000e+00 0.000000e+00 0.000000e+00 0.000000e+00 0.000000e+00 0.000000e+00 0.000000e+00 0.000000e+00 0.000000e+00 0.000000e+00 
    59.5                0.000000e+00 0.000000e+00 0.000000e+00 0.000000e+00 0.000000e+00 0.000000e+00 0.000000e+00 0.000000e+00 0.000000e+00 0.000000e+00 0.000000e+00 0.000000e+00 
    60.5                0.000000e+00 0.000000e+00 0.000000e+00 0.000000e+00 0.000000e+00 0.000000e+00 0.000000e+00 0.000000e+00 0.000000e+00 0.000000e+00 0.000000e+00 0.000000e+00 
    61.5                0.000000e+00 0.000000e+00 0.000000e+00 0.000000e+00 0.000000e+00 0.000000e+00 0.000000e+00 0.000000e+00 0.000000e+00 0.000000e+00 0.000000e+00 0.000000e+00 
    62.5                0.000000e+00 0.000000e+00 0.000000e+00 0.000000e+00 0.000000e+00 0.000000e+00 0.000000e+00 0.000000e+00 0.000000e+00 0.000000e+00 0.000000e+00 0.000000e+00 
    63.5                0.000000e+00 0.000000e+00 0.000000e+00 0.000000e+00 0.000000e+00 0.000000e+00 0.000000e+00 0.000000e+00 0.000000e+00 0.000000e+00 0.000000e+00 0.000000e+00 
    64.5                0.000000e+00 0.000000e+00 0.000000e+00 0.000000e+00 0.000000e+00 0.000000e+00 0.000000e+00 0.000000e+00 0.000000e+00 0.000000e+00 0.000000e+00 0.000000e+00 
    65.5                0.000000e+00 0.000000e+00 0.000000e+00 0.000000e+00 0.000000e+00 0.000000e+00 0.000000e+00 0.000000e+00 0.000000e+00 0.000000e+00 0.000000e+00 0.000000e+00 
    66.5                0.000000e+00 0.000000e+00 0.000000e+00 0.000000e+00 0.000000e+00 0.000000e+00 0.000000e+00 0.000000e+00 0.000000e+00 0.000000e+00 0.000000e+00 0.000000e+00 
    67.5                0.000000e+00 0.000000e+00 0.000000e+00 0.000000e+00 0.000000e+00 0.000000e+00 0.000000e+00 0.000000e+00 0.000000e+00 0.000000e+00 0.000000e+00 0.000000e+00 
    68.5                0.000000e+00 0.000000e+00 0.000000e+00 0.000000e+00 0.000000e+00 0.000000e+00 0.000000e+00 0.000000e+00 0.000000e+00 0.000000e+00 0.000000e+00 0.000000e+00 
    69.5                0.000000e+00 0.000000e+00 0.000000e+00 0.000000e+00 0.000000e+00 0.000000e+00 0.000000e+00 0.000000e+00 0.000000e+00 0.000000e+00 0.000000e+00 0.000000e+00 
    70.5                0.000000e+00 0.000000e+00 0.000000e+00 0.000000e+00 0.000000e+00 0.000000e+00 0.000000e+00 0.000000e+00 0.000000e+00 0.000000e+00 0.000000e+00 0.000000e+00 
    71.5                0.000000e+00 0.000000e+00 0.000000e+00 0.000000e+00 0.000000e+00 0.000000e+00 0.000000e+00 0.000000e+00 0.000000e+00 0.000000e+00 0.000000e+00 0.000000e+00 
    72.5                0.000000e+00 0.000000e+00 0.000000e+00 0.000000e+00 0.000000e+00 0.000000e+00 0.000000e+00 0.000000e+00 0.000000e+00 0.000000e+00 0.000000e+00 0.000000e+00 
    73.5                0.000000e+00 0.000000e+00 0.000000e+00 0.000000e+00 0.000000e+00 0.000000e+00 0.000000e+00 0.000000e+00 0.000000e+00 0.000000e+00 0.000000e+00 0.000000e+00 
    74.5                0.000000e+00 0.000000e+00 0.000000e+00 0.000000e+00 0.000000e+00 0.000000e+00 0.000000e+00 0.000000e+00 0.000000e+00 0.000000e+00 0.000000e+00 0.000000e+00 
    75.5                0.000000e+00 0.000000e+00 0.000000e+00 0.000000e+00 0.000000e+00 0.000000e+00 0.000000e+00 0.000000e+00 0.000000e+00 0.000000e+00 0.000000e+00 0.000000e+00 
    76.5                0.000000e+00 0.000000e+00 0.000000e+00 0.000000e+00 0.000000e+00 0.000000e+00 0.000000e+00 0.000000e+00 0.000000e+00 0.000000e+00 0.000000e+00 0.000000e+00 
    77.5                0.000000e+00 0.000000e+00 0.000000e+00 0.000000e+00 0.000000e+00 0.000000e+00 0.000000e+00 0.000000e+00 0.000000e+00 0.000000e+00 0.000000e+00 0.000000e+00 
    78.5                0.000000e+00 0.000000e+00 0.000000e+00 0.000000e+00 0.000000e+00 0.000000e+00 0.000000e+00 0.000000e+00 0.000000e+00 0.000000e+00 0.000000e+00 0.000000e+00 
    79.5                0.000000e+00 0.000000e+00 0.000000e+00 0.000000e+00 0.000000e+00 0.000000e+00 0.000000e+00 0.000000e+00 0.000000e+00 0.000000e+00 0.000000e+00 0.000000e+00 


