# 80 rows of flux data
# 12 columns of flux data
# 
# total cross-sectional flux  1.041870e+00 /m^2/yr
#
#                             +x ram      -x wake      +y port -y starboard    +z zenith     -z nadir        Earth          Sun     anti-Sun      rot (x)      rot (y)      rot (z) 
# average speed (km/s)         37.08        38.36        43.40        31.72        32.13        44.95        34.84        28.15        27.89        34.00        34.58        36.65 
# total flux (#/m2/yr)  2.574995e-01 2.161786e-01 1.725506e-01 3.348976e-01 5.787173e-01 2.651398e-04 1.625354e-01 1.694661e-01 1.674192e-01 8.626623e-01 8.228549e-01 7.688828e-01 
# velocity (km/s)
     0.5                0.000000e+00 0.000000e+00 0.000000e+00 0.000000e+00 0.000000e+00 0.000000e+00 0.000000e+00 0.000000e+00 0.000000e+00 0.000000e+00 0.000000e+00 0.000000e+00 
     1.5                0.000000e+00 0.000000e+00 0.000000e+00 0.000000e+00 0.000000e+00 0.000000e+00 0.000000e+00 0.000000e+00 0.000000e+00 0.000000e+00 0.000000e+00 0.000000e+00 
     2.5                3.165213e-05 1.190545e-04 8.575307e-05 8.667367e-05 1.554181e-04 6.550474e-08 4.835350e-05 8.331502e-05 8.240282e-05 2.578541e-04 2.414802e-04 2.541219e-04 
     3.5                3.625589e-04 4.742939e-04 4.643724e-04 4.011211e-04 7.638174e-04 4.523081e-07 2.277307e-04 4.497955e-04 4.300003e-04 1.287173e-03 1.260603e-03 1.338123e-03 
     4.5                9.616042e-04 8.443249e-04 9.465577e-04 8.558369e-04 1.655330e-03 1.079073e-06 4.700103e-04 9.859614e-04 9.606649e-04 2.736017e-03 2.726575e-03 2.836079e-03 
     5.5                1.613651e-03 1.252795e-03 1.400045e-03 1.428447e-03 2.738412e-03 1.724375e-06 7.581276e-04 1.611898e-03 1.589639e-03 4.406199e-03 4.404975e-03 4.473137e-03 
     6.5                2.279691e-03 1.623649e-03 1.794320e-03 2.145259e-03 4.027676e-03 2.271407e-06 1.081248e-03 2.246445e-03 2.236097e-03 6.300055e-03 6.233766e-03 6.158325e-03 
     7.5                2.845229e-03 1.988160e-03 2.078813e-03 2.915049e-03 5.380293e-03 2.721878e-06 1.408409e-03 2.824610e-03 2.825281e-03 8.195987e-03 8.031792e-03 7.713471e-03 
     8.5                3.357225e-03 2.322957e-03 2.300354e-03 3.677055e-03 6.703745e-03 3.032193e-06 1.712556e-03 3.357214e-03 3.364941e-03 1.000213e-02 9.736009e-03 9.146944e-03 
     9.5                3.772300e-03 2.579311e-03 2.459776e-03 4.412019e-03 7.966131e-03 3.258629e-06 1.993928e-03 3.835766e-03 3.839984e-03 1.169070e-02 1.126610e-02 1.037344e-02 
    10.5                4.106555e-03 2.879954e-03 2.545716e-03 5.144674e-03 9.196072e-03 3.430552e-06 2.264280e-03 4.289492e-03 4.285189e-03 1.329126e-02 1.274249e-02 1.151324e-02 
    11.5                4.471980e-03 3.104458e-03 2.621129e-03 5.997310e-03 1.064378e-02 3.515417e-06 2.540252e-03 4.750575e-03 4.739529e-03 1.513029e-02 1.436935e-02 1.270307e-02 
    12.5                4.737932e-03 3.278673e-03 2.607300e-03 6.653698e-03 1.173010e-02 3.521401e-06 2.776112e-03 5.072817e-03 5.059863e-03 1.648220e-02 1.557492e-02 1.355014e-02 
    13.5                4.899167e-03 3.313819e-03 2.547756e-03 7.198900e-03 1.267688e-02 3.399742e-06 2.877284e-03 5.205309e-03 5.191223e-03 1.756048e-02 1.651977e-02 1.409376e-02 
    14.5                4.802675e-03 3.435672e-03 2.481326e-03 7.512732e-03 1.319169e-02 3.314744e-06 2.939037e-03 5.261012e-03 5.242958e-03 1.813240e-02 1.697793e-02 1.430916e-02 
    15.5                4.958198e-03 3.497322e-03 2.398803e-03 8.115608e-03 1.419006e-02 3.236380e-06 3.100456e-03 5.373676e-03 5.357409e-03 1.929703e-02 1.796586e-02 1.488828e-02 
    16.5                4.912907e-03 3.547285e-03 2.333670e-03 8.278225e-03 1.443582e-02 3.144733e-06 3.131372e-03 5.387719e-03 5.371711e-03 1.955340e-02 1.816649e-02 1.496451e-02 
    17.5                4.929876e-03 3.557827e-03 2.247146e-03 8.526425e-03 1.482167e-02 3.037276e-06 3.202351e-03 5.354912e-03 5.338915e-03 1.997712e-02 1.850215e-02 1.511905e-02 
    18.5                4.894130e-03 3.618569e-03 2.138622e-03 8.786404e-03 1.523049e-02 2.861858e-06 3.273192e-03 5.312994e-03 5.296713e-03 2.040582e-02 1.885020e-02 1.525566e-02 
    19.5                4.850987e-03 3.600902e-03 2.047152e-03 8.874047e-03 1.530953e-02 2.738508e-06 3.330642e-03 5.199785e-03 5.183677e-03 2.047701e-02 1.883747e-02 1.518846e-02 
    20.5                4.776245e-03 3.546899e-03 1.905189e-03 8.765776e-03 1.510887e-02 2.588689e-06 3.293794e-03 5.012774e-03 4.997038e-03 2.013960e-02 1.854742e-02 1.488744e-02 
    21.5                4.625655e-03 3.594042e-03 1.816643e-03 8.839429e-03 1.519230e-02 2.423867e-06 3.315953e-03 4.872279e-03 4.857159e-03 2.019423e-02 1.852589e-02 1.479857e-02 
    22.5                4.689998e-03 3.518647e-03 1.721667e-03 8.991030e-03 1.540840e-02 2.288945e-06 3.383992e-03 4.747733e-03 4.734177e-03 2.041828e-02 1.868098e-02 1.483450e-02 
    23.5                4.470198e-03 3.376967e-03 1.583167e-03 8.525473e-03 1.458112e-02 2.127105e-06 3.227325e-03 4.445973e-03 4.434233e-03 1.930976e-02 1.769574e-02 1.406061e-02 
    24.5                4.211711e-03 3.294150e-03 1.464103e-03 8.181743e-03 1.396576e-02 1.915927e-06 3.137983e-03 4.179422e-03 4.167641e-03 1.848886e-02 1.690964e-02 1.342499e-02 
    25.5                4.119083e-03 3.209553e-03 1.376782e-03 8.002189e-03 1.363420e-02 1.885111e-06 3.084290e-03 3.954079e-03 3.943320e-03 1.803406e-02 1.648030e-02 1.306581e-02 
    26.5                3.943749e-03 3.181614e-03 1.317680e-03 7.721744e-03 1.312275e-02 1.799369e-06 3.037171e-03 3.746125e-03 3.735135e-03 1.739841e-02 1.587875e-02 1.263429e-02 
    27.5                3.879550e-03 3.054653e-03 1.223193e-03 7.436882e-03 1.258933e-02 1.652896e-06 2.990755e-03 3.538966e-03 3.529021e-03 1.671524e-02 1.525588e-02 1.217866e-02 
    28.5                3.701470e-03 2.984848e-03 1.115319e-03 7.133548e-03 1.202595e-02 1.460708e-06 2.913424e-03 3.274907e-03 3.266393e-03 1.597073e-02 1.458293e-02 1.166350e-02 
    29.5                3.559910e-03 2.768271e-03 1.009220e-03 6.775453e-03 1.137276e-02 1.278755e-06 2.797396e-03 2.967091e-03 2.959954e-03 1.510023e-02 1.377004e-02 1.101856e-02 
    30.5                3.296526e-03 2.696607e-03 9.012208e-04 6.472225e-03 1.082542e-02 1.182245e-06 2.671997e-03 2.748360e-03 2.742028e-03 1.434665e-02 1.307034e-02 1.042932e-02 
    31.5                3.185047e-03 2.687244e-03 8.313828e-04 6.295106e-03 1.047925e-02 1.063434e-06 2.671150e-03 2.581769e-03 2.576504e-03 1.391691e-02 1.266461e-02 1.014345e-02 
    32.5                3.098028e-03 2.579620e-03 7.940214e-04 5.941008e-03 9.840372e-03 9.202223e-07 2.582596e-03 2.368415e-03 2.363169e-03 1.312406e-02 1.196480e-02 9.683763e-03 
    33.5                3.005753e-03 2.638595e-03 7.847020e-04 5.771530e-03 9.504182e-03 8.824527e-07 2.586518e-03 2.188641e-03 2.183014e-03 1.274772e-02 1.163551e-02 9.518582e-03 
    34.5                3.061677e-03 2.638068e-03 7.487131e-04 5.843036e-03 9.552717e-03 8.200611e-07 2.662685e-03 2.101390e-03 2.097115e-03 1.283142e-02 1.169774e-02 9.592651e-03 
    35.5                2.944873e-03 2.547644e-03 7.410776e-04 5.440537e-03 8.791365e-03 8.097315e-07 2.569125e-03 1.964024e-03 1.960138e-03 1.193057e-02 1.090478e-02 9.111915e-03 
    36.5                2.852789e-03 2.600178e-03 7.622502e-04 5.329544e-03 8.570642e-03 8.794789e-07 2.569688e-03 1.835713e-03 1.831061e-03 1.170410e-02 1.068857e-02 9.019423e-03 
    37.5                2.974461e-03 2.678643e-03 7.773171e-04 5.425930e-03 8.650994e-03 9.175325e-07 2.655018e-03 1.778585e-03 1.774425e-03 1.186835e-02 1.088990e-02 9.265260e-03 
    38.5                2.890033e-03 2.878203e-03 8.735783e-04 5.376018e-03 8.450163e-03 1.118261e-06 2.723758e-03 1.708415e-03 1.702890e-03 1.177029e-02 1.079898e-02 9.391483e-03 
    39.5                3.118205e-03 2.770258e-03 9.437997e-04 5.392292e-03 8.380359e-03 1.216848e-06 2.810525e-03 1.658299e-03 1.652459e-03 1.180652e-02 1.082869e-02 9.561891e-03 
    40.5                3.064998e-03 2.856515e-03 9.235235e-04 5.309491e-03 8.213539e-03 1.162312e-06 2.797669e-03 1.590091e-03 1.584919e-03 1.159989e-02 1.071387e-02 9.513153e-03 
    41.5                3.096935e-03 3.157818e-03 1.092100e-03 5.395476e-03 8.264801e-03 1.217398e-06 2.932255e-03 1.573494e-03 1.565779e-03 1.186012e-02 1.098793e-02 9.974656e-03 
    42.5                3.381333e-03 3.067371e-03 1.287247e-03 5.337094e-03 8.069729e-03 1.592976e-06 3.002598e-03 1.569522e-03 1.559271e-03 1.183603e-02 1.099149e-02 1.024478e-02 
    43.5                3.286651e-03 3.250168e-03 1.359461e-03 5.141288e-03 7.700490e-03 1.759900e-06 2.949743e-03 1.524328e-03 1.512657e-03 1.145213e-02 1.078028e-02 1.021504e-02 
    44.5                3.454539e-03 3.578144e-03 1.650063e-03 5.429095e-03 8.019657e-03 2.668315e-06 3.206107e-03 1.578772e-03 1.564154e-03 1.221548e-02 1.141795e-02 1.107038e-02 
    45.5                3.807517e-03 3.563222e-03 1.744986e-03 5.544918e-03 8.034600e-03 3.151661e-06 3.346327e-03 1.584520e-03 1.570491e-03 1.242228e-02 1.169927e-02 1.150305e-02 
    46.5                3.730249e-03 3.667194e-03 1.903791e-03 5.430617e-03 7.855805e-03 3.735723e-06 3.327825e-03 1.552813e-03 1.535931e-03 1.232577e-02 1.160270e-02 1.156810e-02 
    47.5                3.881892e-03 3.926408e-03 2.277907e-03 5.323406e-03 7.866143e-03 4.266522e-06 3.288031e-03 1.580462e-03 1.554891e-03 1.254504e-02 1.195509e-02 1.209956e-02 
    48.5                3.998751e-03 4.336612e-03 2.925466e-03 5.231875e-03 7.905974e-03 5.919187e-06 3.289040e-03 1.641681e-03 1.602754e-03 1.305318e-02 1.244633e-02 1.294394e-02 
    49.5                4.460109e-03 4.775947e-03 3.502061e-03 5.352419e-03 8.207056e-03 7.534520e-06 3.418946e-03 1.719652e-03 1.670798e-03 1.388994e-02 1.342786e-02 1.419628e-02 
    50.5                4.761170e-03 5.514894e-03 4.359234e-03 5.457188e-03 8.603894e-03 9.168332e-06 3.553030e-03 1.823285e-03 1.758865e-03 1.500628e-02 1.461737e-02 1.576776e-02 
    51.5                5.461958e-03 6.083114e-03 5.580859e-03 5.422215e-03 9.122362e-03 1.015058e-05 3.580788e-03 1.924427e-03 1.835965e-03 1.634570e-02 1.608137e-02 1.768880e-02 
    52.5                6.177467e-03 6.100070e-03 6.369304e-03 5.162209e-03 9.163064e-03 1.096171e-05 3.449798e-03 1.985024e-03 1.881648e-03 1.676625e-02 1.675839e-02 1.867466e-02 
    53.5                6.305023e-03 6.194797e-03 6.782375e-03 4.849272e-03 8.935384e-03 1.144156e-05 3.279340e-03 2.010401e-03 1.900653e-03 1.663032e-02 1.681323e-02 1.893294e-02 
    54.5                6.431263e-03 5.842815e-03 6.915174e-03 4.529653e-03 8.572246e-03 1.141539e-05 3.097057e-03 1.993314e-03 1.882604e-03 1.616892e-02 1.638925e-02 1.861470e-02 
    55.5                6.371631e-03 5.897660e-03 6.918245e-03 4.272186e-03 8.246345e-03 1.168660e-05 2.936570e-03 1.966018e-03 1.856196e-03 1.569379e-02 1.616334e-02 1.840358e-02 
    56.5                6.249188e-03 5.633229e-03 6.973479e-03 4.024198e-03 7.909789e-03 1.201034e-05 2.799300e-03 1.922560e-03 1.813485e-03 1.527264e-02 1.562821e-02 1.795257e-02 
    57.5                6.020953e-03 5.156155e-03 6.675649e-03 3.575685e-03 7.249574e-03 1.162902e-05 2.497300e-03 1.827045e-03 1.723539e-03 1.413058e-02 1.458321e-02 1.682009e-02 
    58.5                5.542725e-03 4.950415e-03 6.448463e-03 3.108119e-03 6.644497e-03 1.062848e-05 2.179831e-03 1.693009e-03 1.593341e-03 1.306050e-02 1.358801e-02 1.572500e-02 
    59.5                5.253658e-03 4.729755e-03 6.318621e-03 2.785222e-03 6.190946e-03 1.040463e-05 1.971932e-03 1.559778e-03 1.462807e-03 1.232624e-02 1.285982e-02 1.496561e-02 
    60.5                5.072862e-03 4.303665e-03 6.037703e-03 2.449278e-03 5.693816e-03 9.701495e-06 1.739404e-03 1.396042e-03 1.304109e-03 1.140515e-02 1.200086e-02 1.400874e-02 
    61.5                4.601574e-03 3.758097e-03 5.666628e-03 1.967250e-03 5.011124e-03 8.623284e-06 1.404578e-03 1.225146e-03 1.138614e-03 1.013974e-02 1.067642e-02 1.254493e-02 
    62.5                4.249253e-03 3.078045e-03 4.944545e-03 1.565540e-03 4.234749e-03 7.347270e-06 1.116295e-03 1.045237e-03 9.705336e-04 8.593739e-03 9.245757e-03 1.084719e-02 
    63.5                3.480208e-03 2.514297e-03 4.139706e-03 1.176637e-03 3.396938e-03 6.154757e-06 8.451802e-04 8.594214e-04 7.975243e-04 6.961499e-03 7.532343e-03 8.867561e-03 
    64.5                2.866400e-03 2.014254e-03 3.416962e-03 8.813960e-04 2.727931e-03 4.868613e-06 6.313029e-04 6.809399e-04 6.302479e-04 5.602735e-03 6.109473e-03 7.195652e-03 
    65.5                2.279990e-03 1.537361e-03 2.753865e-03 6.105716e-04 2.116760e-03 3.613495e-06 4.366514e-04 5.139418e-04 4.732426e-04 4.353332e-03 4.770798e-03 5.628274e-03 
    66.5                1.828079e-03 1.093128e-03 2.123906e-03 4.119104e-04 1.584767e-03 2.616581e-06 2.936988e-04 3.687894e-04 3.376209e-04 3.259618e-03 3.627918e-03 4.275155e-03 
    67.5                1.340650e-03 6.996245e-04 1.489466e-03 2.512347e-04 1.080667e-03 1.719501e-06 1.786423e-04 2.401695e-04 2.186521e-04 2.220783e-03 2.517145e-03 2.964099e-03 
    68.5                9.020853e-04 3.916211e-04 9.560633e-04 1.360999e-04 6.714427e-04 1.043893e-06 9.680553e-05 1.386707e-04 1.249949e-04 1.379335e-03 1.587209e-03 1.871508e-03 
    69.5                5.517080e-04 1.727040e-04 5.291657e-04 6.471376e-05 3.620981e-04 5.607359e-07 4.628173e-05 6.786313e-05 6.044223e-05 7.427441e-04 8.787713e-04 1.034067e-03 
    70.5                2.762388e-04 4.386106e-05 2.252327e-04 2.396654e-05 1.507886e-04 2.433452e-07 1.719813e-05 2.586965e-05 2.277154e-05 3.085470e-04 3.823797e-04 4.475257e-04 
    71.5                1.002549e-04 5.737442e-06 6.081601e-05 6.603982e-06 4.072641e-05 8.676257e-08 4.798534e-06 6.568479e-06 5.760639e-06 8.308889e-05 1.206185e-04 1.368544e-04 
    72.5                1.758658e-05 1.240277e-07 8.447605e-06 8.040343e-07 5.524758e-06 1.583499e-08 6.048624e-07 9.247940e-07 8.180236e-07 1.126095e-05 1.942391e-05 2.149903e-05 
    73.5                1.367760e-06 0.000000e+00 4.286705e-07 2.605175e-08 2.626617e-07 1.486685e-09 2.242133e-08 3.971347e-08 3.443370e-08 5.402084e-07 1.412814e-06 1.485755e-06 
    74.5                0.000000e+00 0.000000e+00 0.000000e+00 0.000000e+00 0.000000e+00 0.000000e+00 0.000000e+00 0.000000e+00 0.000000e+00 0.000000e+00 0.000000e+00 0.000000e+00 
    75.5                0.000000e+00 0.000000e+00 0.000000e+00 0.000000e+00 0.000000e+00 0.000000e+00 0.000000e+00 0.000000e+00 0.000000e+00 0.000000e+00 0.000000e+00 0.000000e+00 
    76.5                0.000000e+00 0.000000e+00 0.000000e+00 0.000000e+00 0.000000e+00 0.000000e+00 0.000000e+00 0.000000e+00 0.000000e+00 0.000000e+00 0.000000e+00 0.000000e+00 
    77.5                0.000000e+00 0.000000e+00 0.000000e+00 0.000000e+00 0.000000e+00 0.000000e+00 0.000000e+00 0.000000e+00 0.000000e+00 0.000000e+00 0.000000e+00 0.000000e+00 
    78.5                0.000000e+00 0.000000e+00 0.000000e+00 0.000000e+00 0.000000e+00 0.000000e+00 0.000000e+00 0.000000e+00 0.000000e+00 0.000000e+00 0.000000e+00 0.000000e+00 
    79.5                0.000000e+00 0.000000e+00 0.000000e+00 0.000000e+00 0.000000e+00 0.000000e+00 0.000000e+00 0.000000e+00 0.000000e+00 0.000000e+00 0.000000e+00 0.000000e+00 


