# 80 rows of flux data
# 12 columns of flux data
# 
# total cross-sectional flux  2.193549e+00 /m^2/yr
#
#                       +x vernal eq.           -x           +y           -y +z eclip. N. -z eclip. S.        Earth          Sun     anti-Sun      rot (x)      rot (y)      rot (z) 
# average speed (km/s)         23.93        24.55        24.17        24.30        19.27        22.34        24.58        24.64        24.65        23.62        23.62        24.24 
# total flux (#/m2/yr)  6.539928e-01 6.828091e-01 6.656884e-01 6.715845e-01 3.205056e-01 1.197434e-01 1.222499e+00 9.518474e-01 9.643224e-01 1.491471e+00 1.491096e+00 2.100203e+00 
# velocity (km/s)
     0.5                0.000000e+00 0.000000e+00 0.000000e+00 0.000000e+00 0.000000e+00 0.000000e+00 0.000000e+00 0.000000e+00 0.000000e+00 0.000000e+00 0.000000e+00 0.000000e+00 
     1.5                0.000000e+00 0.000000e+00 0.000000e+00 0.000000e+00 0.000000e+00 0.000000e+00 0.000000e+00 0.000000e+00 0.000000e+00 0.000000e+00 0.000000e+00 0.000000e+00 
     2.5                6.758013e-07 1.033817e-06 2.939392e-06 2.887419e-06 2.033265e-06 2.425153e-08 1.780601e-06 3.528891e-07 1.494339e-06 6.265104e-06 2.871892e-06 6.235122e-06 
     3.5                7.288187e-05 4.816520e-05 6.413835e-05 6.248984e-05 5.351031e-05 5.566009e-06 9.425116e-05 2.923181e-05 5.630931e-05 1.485161e-04 1.445219e-04 1.947979e-04 
     4.5                4.567541e-04 2.240920e-04 3.547002e-04 3.329141e-04 2.973509e-04 5.318609e-05 5.571949e-04 2.001169e-04 2.926925e-04 8.314982e-04 8.233396e-04 1.072807e-03 
     5.5                1.316417e-03 8.295671e-04 1.135718e-03 1.072031e-03 1.041535e-03 2.165596e-04 1.859503e-03 7.995143e-04 9.757351e-04 2.745366e-03 2.690437e-03 3.419791e-03 
     6.5                2.754005e-03 2.109121e-03 2.508157e-03 2.384409e-03 2.379556e-03 5.240477e-04 4.112594e-03 2.001501e-03 2.220445e-03 6.147669e-03 6.114639e-03 7.663152e-03 
     7.5                4.665073e-03 4.019772e-03 4.401338e-03 4.289801e-03 4.389954e-03 9.354462e-04 7.238947e-03 3.855320e-03 4.037203e-03 1.102217e-02 1.103534e-02 1.363984e-02 
     8.5                7.173748e-03 6.550938e-03 6.931243e-03 6.820721e-03 6.788930e-03 1.530734e-03 1.165421e-02 6.469178e-03 6.533267e-03 1.735502e-02 1.734236e-02 2.157850e-02 
     9.5                9.837520e-03 9.229348e-03 9.602174e-03 9.475434e-03 9.492650e-03 2.183444e-03 1.622941e-02 9.588454e-03 9.584520e-03 2.416164e-02 2.417638e-02 2.995729e-02 
    10.5                1.229380e-02 1.178017e-02 1.208907e-02 1.198479e-02 1.249851e-02 2.660686e-03 1.998105e-02 1.302528e-02 1.311243e-02 3.081437e-02 3.080485e-02 3.781915e-02 
    11.5                1.423875e-02 1.382859e-02 1.409280e-02 1.399364e-02 1.488443e-02 3.039035e-03 2.340630e-02 1.641223e-02 1.659808e-02 3.619467e-02 3.618207e-02 4.411227e-02 
    12.5                1.567638e-02 1.560166e-02 1.566192e-02 1.563250e-02 1.633696e-02 3.336451e-03 2.606261e-02 1.945343e-02 1.965740e-02 4.021511e-02 4.022164e-02 4.914610e-02 
    13.5                1.742323e-02 1.703052e-02 1.726129e-02 1.717590e-02 1.732048e-02 3.684472e-03 2.888618e-02 2.243079e-02 2.263367e-02 4.392594e-02 4.393419e-02 5.410296e-02 
    14.5                1.919705e-02 1.869191e-02 1.904887e-02 1.893548e-02 1.774221e-02 4.132704e-03 3.237247e-02 2.557077e-02 2.581293e-02 4.762740e-02 4.753843e-02 5.959186e-02 
    15.5                2.073957e-02 2.044734e-02 2.067630e-02 2.061025e-02 1.758155e-02 4.548073e-03 3.572077e-02 2.857311e-02 2.884496e-02 5.071849e-02 5.061846e-02 6.478132e-02 
    16.5                2.233507e-02 2.208052e-02 2.226482e-02 2.219588e-02 1.745354e-02 4.849853e-03 3.883419e-02 3.138681e-02 3.167988e-02 5.366089e-02 5.363087e-02 6.980186e-02 
    17.5                2.353586e-02 2.353499e-02 2.354949e-02 2.353797e-02 1.688150e-02 5.107842e-03 4.154659e-02 3.389737e-02 3.421013e-02 5.580634e-02 5.578973e-02 7.394597e-02 
    18.5                2.455406e-02 2.474618e-02 2.469981e-02 2.472591e-02 1.603611e-02 5.367920e-03 4.412344e-02 3.612400e-02 3.645681e-02 5.753257e-02 5.741172e-02 7.753871e-02 
    19.5                2.534563e-02 2.584312e-02 2.555783e-02 2.564091e-02 1.537820e-02 5.513946e-03 4.604188e-02 3.789749e-02 3.824943e-02 5.883722e-02 5.883121e-02 8.041141e-02 
    20.5                2.594470e-02 2.648808e-02 2.614412e-02 2.623785e-02 1.446308e-02 5.546764e-03 4.745287e-02 3.911395e-02 3.949138e-02 5.942642e-02 5.947322e-02 8.231736e-02 
    21.5                2.680079e-02 2.706353e-02 2.691830e-02 2.696219e-02 1.355407e-02 5.578670e-03 4.914142e-02 4.043490e-02 4.084809e-02 6.028868e-02 6.026800e-02 8.461928e-02 
    22.5                2.752853e-02 2.791225e-02 2.771676e-02 2.777962e-02 1.295148e-02 5.665472e-03 5.100447e-02 4.180748e-02 4.225673e-02 6.151967e-02 6.146958e-02 8.713027e-02 
    23.5                2.784495e-02 2.854883e-02 2.813419e-02 2.826480e-02 1.203676e-02 5.659098e-03 5.211521e-02 4.257707e-02 4.305963e-02 6.182668e-02 6.182319e-02 8.858819e-02 
    24.5                2.796143e-02 2.867821e-02 2.826497e-02 2.839683e-02 1.111950e-02 5.535189e-03 5.260567e-02 4.277754e-02 4.329306e-02 6.153725e-02 6.151851e-02 8.898623e-02 
    25.5                2.782846e-02 2.873163e-02 2.821535e-02 2.838869e-02 1.011984e-02 5.345082e-03 5.284221e-02 4.267592e-02 4.322174e-02 6.090319e-02 6.085882e-02 8.887945e-02 
    26.5                2.728071e-02 2.848445e-02 2.777189e-02 2.800463e-02 9.145194e-03 5.073512e-03 5.232454e-02 4.200300e-02 4.256401e-02 5.954294e-02 5.953416e-02 8.760410e-02 
    27.5                2.651100e-02 2.786777e-02 2.706142e-02 2.732923e-02 8.197096e-03 4.757193e-03 5.111269e-02 4.086566e-02 4.143245e-02 5.766493e-02 5.765347e-02 8.542734e-02 
    28.5                2.565130e-02 2.698547e-02 2.619219e-02 2.645785e-02 7.315629e-03 4.414115e-03 4.971651e-02 3.943175e-02 4.000038e-02 5.548387e-02 5.547029e-02 8.269252e-02 
    29.5                2.454727e-02 2.604208e-02 2.515010e-02 2.544844e-02 6.453906e-03 4.065183e-03 4.790276e-02 3.775344e-02 3.831863e-02 5.301368e-02 5.300380e-02 7.947303e-02 
    30.5                2.319985e-02 2.485536e-02 2.385900e-02 2.419514e-02 5.623033e-03 3.668467e-03 4.560782e-02 3.569934e-02 3.624969e-02 5.007559e-02 5.007657e-02 7.548406e-02 
    31.5                2.174334e-02 2.342795e-02 2.242299e-02 2.276479e-02 4.798518e-03 3.248580e-03 4.298332e-02 3.338146e-02 3.391065e-02 4.683593e-02 4.682089e-02 7.096795e-02 
    32.5                2.001675e-02 2.186250e-02 2.075312e-02 2.113279e-02 4.044909e-03 2.819864e-03 3.993564e-02 3.074476e-02 3.124406e-02 4.321307e-02 4.320420e-02 6.578842e-02 
    33.5                1.809584e-02 2.006457e-02 1.888183e-02 1.928794e-02 3.376157e-03 2.417375e-03 3.642849e-02 2.781905e-02 2.827821e-02 3.922861e-02 3.921897e-02 5.994957e-02 
    34.5                1.606677e-02 1.810696e-02 1.687237e-02 1.729638e-02 2.773387e-03 2.030304e-03 3.264617e-02 2.472666e-02 2.514109e-02 3.500065e-02 3.500438e-02 5.367625e-02 
    35.5                1.411278e-02 1.604287e-02 1.487270e-02 1.527474e-02 2.217058e-03 1.658875e-03 2.882533e-02 2.164777e-02 2.201645e-02 3.077778e-02 3.078498e-02 4.736187e-02 
    36.5                1.213568e-02 1.406412e-02 1.288328e-02 1.328912e-02 1.719933e-03 1.317341e-03 2.506943e-02 1.863924e-02 1.895920e-02 2.663106e-02 2.665639e-02 4.113261e-02 
    37.5                1.025393e-02 1.209912e-02 1.098490e-02 1.137264e-02 1.307824e-03 1.022427e-03 2.141536e-02 1.576602e-02 1.604012e-02 2.268316e-02 2.267748e-02 3.511550e-02 
    38.5                8.425325e-03 1.019611e-02 9.114634e-03 9.489080e-03 9.647685e-04 7.704718e-04 1.785288e-02 1.300241e-02 1.322882e-02 1.882635e-02 1.884293e-02 2.923652e-02 
    39.5                6.629881e-03 8.362504e-03 7.308137e-03 7.675446e-03 6.829548e-04 5.556054e-04 1.437273e-02 1.036371e-02 1.054247e-02 1.512817e-02 1.513594e-02 2.354266e-02 
    40.5                4.974750e-03 6.579928e-03 5.596305e-03 5.937610e-03 4.578960e-04 3.784149e-04 1.105856e-02 7.897313e-03 8.031886e-03 1.162228e-02 1.164195e-02 1.813351e-02 
    41.5                3.557703e-03 4.940680e-03 4.086502e-03 4.381855e-03 2.888835e-04 2.418297e-04 8.104045e-03 5.741375e-03 5.836560e-03 8.518576e-03 8.547742e-03 1.332554e-02 
    42.5                2.410720e-03 3.535586e-03 2.837357e-03 3.078251e-03 1.704532e-04 1.440401e-04 5.661430e-03 3.969738e-03 4.034285e-03 5.942116e-03 5.972020e-03 9.316158e-03 
    43.5                1.500683e-03 2.400140e-03 1.842892e-03 2.035840e-03 9.300235e-05 7.912532e-05 3.706539e-03 2.574462e-03 2.614497e-03 3.891560e-03 3.913115e-03 6.109873e-03 
    44.5                8.202203e-04 1.502219e-03 1.073979e-03 1.220776e-03 4.512709e-05 3.838264e-05 2.179823e-03 1.511744e-03 1.532802e-03 2.300149e-03 2.327535e-03 3.626204e-03 
    45.5                3.725076e-04 8.259398e-04 5.359326e-04 6.339416e-04 1.846713e-05 1.563170e-05 1.103983e-03 7.677962e-04 7.766268e-04 1.171764e-03 1.200142e-03 1.859985e-03 
    46.5                1.261877e-04 3.780557e-04 2.146969e-04 2.693148e-04 6.050457e-06 5.047070e-06 4.460169e-04 3.175739e-04 3.202556e-04 4.845375e-04 5.046952e-04 7.761142e-04 
    47.5                2.979240e-05 1.295563e-04 6.219643e-05 8.421458e-05 1.425227e-06 1.148742e-06 1.309615e-04 9.767340e-05 9.778454e-05 1.465202e-04 1.594269e-04 2.401617e-04 
    48.5                4.372895e-06 3.103650e-05 1.235872e-05 1.830017e-05 2.135060e-07 1.630310e-07 2.633161e-05 2.098001e-05 2.085846e-05 3.067038e-05 3.541673e-05 5.189202e-05 
    49.5                1.508617e-07 4.437897e-06 1.290189e-06 2.266682e-06 1.746223e-08 1.169496e-08 2.816670e-06 2.582868e-06 2.543153e-06 3.557540e-06 4.589054e-06 6.395197e-06 
    50.5                0.000000e+00 1.328473e-07 2.201369e-08 5.473390e-08 2.250243e-10 8.201735e-11 5.307661e-08 6.713690e-08 6.433214e-08 7.675128e-08 1.328480e-07 1.646839e-07 
    51.5                0.000000e+00 0.000000e+00 0.000000e+00 0.000000e+00 0.000000e+00 0.000000e+00 0.000000e+00 0.000000e+00 0.000000e+00 0.000000e+00 0.000000e+00 0.000000e+00 
    52.5                0.000000e+00 0.000000e+00 0.000000e+00 0.000000e+00 0.000000e+00 0.000000e+00 0.000000e+00 0.000000e+00 0.000000e+00 0.000000e+00 0.000000e+00 0.000000e+00 
    53.5                0.000000e+00 0.000000e+00 0.000000e+00 0.000000e+00 0.000000e+00 0.000000e+00 0.000000e+00 0.000000e+00 0.000000e+00 0.000000e+00 0.000000e+00 0.000000e+00 
    54.5                0.000000e+00 0.000000e+00 0.000000e+00 0.000000e+00 0.000000e+00 0.000000e+00 0.000000e+00 0.000000e+00 0.000000e+00 0.000000e+00 0.000000e+00 0.000000e+00 
    55.5                0.000000e+00 0.000000e+00 0.000000e+00 0.000000e+00 0.000000e+00 0.000000e+00 0.000000e+00 0.000000e+00 0.000000e+00 0.000000e+00 0.000000e+00 0.000000e+00 
    56.5                0.000000e+00 0.000000e+00 0.000000e+00 0.000000e+00 0.000000e+00 0.000000e+00 0.000000e+00 0.000000e+00 0.000000e+00 0.000000e+00 0.000000e+00 0.000000e+00 
    57.5                0.000000e+00 0.000000e+00 0.000000e+00 0.000000e+00 0.000000e+00 0.000000e+00 0.000000e+00 0.000000e+00 0.000000e+00 0.000000e+00 0.000000e+00 0.000000e+00 
    58.5                0.000000e+00 0.000000e+00 0.000000e+00 0.000000e+00 0.000000e+00 0.000000e+00 0.000000e+00 0.000000e+00 0.000000e+00 0.000000e+00 0.000000e+00 0.000000e+00 
    59.5                0.000000e+00 0.000000e+00 0.000000e+00 0.000000e+00 0.000000e+00 0.000000e+00 0.000000e+00 0.000000e+00 0.000000e+00 0.000000e+00 0.000000e+00 0.000000e+00 
    60.5                0.000000e+00 0.000000e+00 0.000000e+00 0.000000e+00 0.000000e+00 0.000000e+00 0.000000e+00 0.000000e+00 0.000000e+00 0.000000e+00 0.000000e+00 0.000000e+00 
    61.5                0.000000e+00 0.000000e+00 0.000000e+00 0.000000e+00 0.000000e+00 0.000000e+00 0.000000e+00 0.000000e+00 0.000000e+00 0.000000e+00 0.000000e+00 0.000000e+00 
    62.5                0.000000e+00 0.000000e+00 0.000000e+00 0.000000e+00 0.000000e+00 0.000000e+00 0.000000e+00 0.000000e+00 0.000000e+00 0.000000e+00 0.000000e+00 0.000000e+00 
    63.5                0.000000e+00 0.000000e+00 0.000000e+00 0.000000e+00 0.000000e+00 0.000000e+00 0.000000e+00 0.000000e+00 0.000000e+00 0.000000e+00 0.000000e+00 0.000000e+00 
    64.5                0.000000e+00 0.000000e+00 0.000000e+00 0.000000e+00 0.000000e+00 0.000000e+00 0.000000e+00 0.000000e+00 0.000000e+00 0.000000e+00 0.000000e+00 0.000000e+00 
    65.5                0.000000e+00 0.000000e+00 0.000000e+00 0.000000e+00 0.000000e+00 0.000000e+00 0.000000e+00 0.000000e+00 0.000000e+00 0.000000e+00 0.000000e+00 0.000000e+00 
    66.5                0.000000e+00 0.000000e+00 0.000000e+00 0.000000e+00 0.000000e+00 0.000000e+00 0.000000e+00 0.000000e+00 0.000000e+00 0.000000e+00 0.000000e+00 0.000000e+00 
    67.5                0.000000e+00 0.000000e+00 0.000000e+00 0.000000e+00 0.000000e+00 0.000000e+00 0.000000e+00 0.000000e+00 0.000000e+00 0.000000e+00 0.000000e+00 0.000000e+00 
    68.5                0.000000e+00 0.000000e+00 0.000000e+00 0.000000e+00 0.000000e+00 0.000000e+00 0.000000e+00 0.000000e+00 0.000000e+00 0.000000e+00 0.000000e+00 0.000000e+00 
    69.5                0.000000e+00 0.000000e+00 0.000000e+00 0.000000e+00 0.000000e+00 0.000000e+00 0.000000e+00 0.000000e+00 0.000000e+00 0.000000e+00 0.000000e+00 0.000000e+00 
    70.5                0.000000e+00 0.000000e+00 0.000000e+00 0.000000e+00 0.000000e+00 0.000000e+00 0.000000e+00 0.000000e+00 0.000000e+00 0.000000e+00 0.000000e+00 0.000000e+00 
    71.5                0.000000e+00 0.000000e+00 0.000000e+00 0.000000e+00 0.000000e+00 0.000000e+00 0.000000e+00 0.000000e+00 0.000000e+00 0.000000e+00 0.000000e+00 0.000000e+00 
    72.5                0.000000e+00 0.000000e+00 0.000000e+00 0.000000e+00 0.000000e+00 0.000000e+00 0.000000e+00 0.000000e+00 0.000000e+00 0.000000e+00 0.000000e+00 0.000000e+00 
    73.5                0.000000e+00 0.000000e+00 0.000000e+00 0.000000e+00 0.000000e+00 0.000000e+00 0.000000e+00 0.000000e+00 0.000000e+00 0.000000e+00 0.000000e+00 0.000000e+00 
    74.5                0.000000e+00 0.000000e+00 0.000000e+00 0.000000e+00 0.000000e+00 0.000000e+00 0.000000e+00 0.000000e+00 0.000000e+00 0.000000e+00 0.000000e+00 0.000000e+00 
    75.5                0.000000e+00 0.000000e+00 0.000000e+00 0.000000e+00 0.000000e+00 0.000000e+00 0.000000e+00 0.000000e+00 0.000000e+00 0.000000e+00 0.000000e+00 0.000000e+00 
    76.5                0.000000e+00 0.000000e+00 0.000000e+00 0.000000e+00 0.000000e+00 0.000000e+00 0.000000e+00 0.000000e+00 0.000000e+00 0.000000e+00 0.000000e+00 0.000000e+00 
    77.5                0.000000e+00 0.000000e+00 0.000000e+00 0.000000e+00 0.000000e+00 0.000000e+00 0.000000e+00 0.000000e+00 0.000000e+00 0.000000e+00 0.000000e+00 0.000000e+00 
    78.5                0.000000e+00 0.000000e+00 0.000000e+00 0.000000e+00 0.000000e+00 0.000000e+00 0.000000e+00 0.000000e+00 0.000000e+00 0.000000e+00 0.000000e+00 0.000000e+00 
    79.5                0.000000e+00 0.000000e+00 0.000000e+00 0.000000e+00 0.000000e+00 0.000000e+00 0.000000e+00 0.000000e+00 0.000000e+00 0.000000e+00 0.000000e+00 0.000000e+00 


