# 80 rows of flux data
# 12 columns of flux data
# 
# total cross-sectional flux  9.951646e-01 /m^2/yr
#
#                             +x ram      -x wake      +y port -y starboard    +z zenith     -z nadir        Earth          Sun     anti-Sun      rot (x)      rot (y)      rot (z) 
# average speed (km/s)         37.73        37.74        28.49        36.24        36.94        31.41        37.75        28.21        28.21        33.88        37.34        34.18 
# total flux (#/m2/yr)  2.283266e-01 2.282758e-01 3.453795e-01 2.528872e-01 4.397210e-01 4.125554e-04 2.278638e-01 1.559598e-01 1.558915e-01 8.209267e-01 7.076747e-01 8.197929e-01 
# velocity (km/s)
     0.5                0.000000e+00 0.000000e+00 0.000000e+00 0.000000e+00 0.000000e+00 0.000000e+00 0.000000e+00 0.000000e+00 0.000000e+00 0.000000e+00 0.000000e+00 0.000000e+00 
     1.5                0.000000e+00 0.000000e+00 0.000000e+00 0.000000e+00 0.000000e+00 0.000000e+00 0.000000e+00 0.000000e+00 0.000000e+00 0.000000e+00 0.000000e+00 0.000000e+00 
     2.5                8.925562e-05 9.024561e-05 5.814472e-05 9.117439e-05 2.029055e-04 3.264804e-08 8.965732e-05 9.324938e-05 9.319345e-05 2.743653e-04 2.991664e-04 2.584274e-04 
     3.5                4.597683e-04 4.599395e-04 3.399295e-04 4.562559e-04 8.858416e-04 3.783745e-07 4.573548e-04 4.727647e-04 4.724694e-04 1.315929e-03 1.422441e-03 1.337601e-03 
     4.5                8.902995e-04 8.891751e-04 7.766167e-04 8.842531e-04 1.641274e-03 1.017097e-06 8.842465e-04 9.509095e-04 9.504582e-04 2.594898e-03 2.702094e-03 2.685705e-03 
     5.5                1.351337e-03 1.349914e-03 1.342960e-03 1.369000e-03 2.478164e-03 1.794978e-06 1.342395e-03 1.495102e-03 1.494576e-03 4.085479e-03 4.092911e-03 4.221729e-03 
     6.5                1.789715e-03 1.787133e-03 2.118164e-03 1.816487e-03 3.289492e-03 2.680359e-06 1.777909e-03 2.012628e-03 2.011888e-03 5.698083e-03 5.428818e-03 5.866737e-03 
     7.5                2.206400e-03 2.202603e-03 3.022859e-03 2.291513e-03 4.099417e-03 3.752680e-06 2.191592e-03 2.519848e-03 2.519061e-03 7.439593e-03 6.726650e-03 7.603559e-03 
     8.5                2.587984e-03 2.584199e-03 3.909687e-03 2.690403e-03 4.851447e-03 4.728795e-06 2.571839e-03 3.003657e-03 3.002924e-03 9.065978e-03 7.922652e-03 9.224580e-03 
     9.5                2.891147e-03 2.886679e-03 4.852088e-03 3.048728e-03 5.468180e-03 5.749765e-06 2.873202e-03 3.416510e-03 3.415420e-03 1.059772e-02 8.890666e-03 1.073433e-02 
    10.5                3.205674e-03 3.201075e-03 5.775858e-03 3.416291e-03 6.162631e-03 6.705319e-06 3.185755e-03 3.874458e-03 3.873224e-03 1.217619e-02 9.932035e-03 1.225523e-02 
    11.5                3.478118e-03 3.472632e-03 6.985046e-03 3.749286e-03 6.772767e-03 7.808436e-06 3.457463e-03 4.279345e-03 4.277729e-03 1.390822e-02 1.084744e-02 1.394636e-02 
    12.5                3.686660e-03 3.681115e-03 7.814078e-03 4.014979e-03 7.214996e-03 8.774750e-06 3.666144e-03 4.513627e-03 4.512297e-03 1.514236e-02 1.152504e-02 1.514021e-02 
    13.5                3.751766e-03 3.745061e-03 8.669358e-03 4.029157e-03 7.451342e-03 9.257127e-06 3.732063e-03 4.628050e-03 4.626289e-03 1.604731e-02 1.181461e-02 1.599788e-02 
    14.5                3.822838e-03 3.817356e-03 9.315649e-03 4.222402e-03 7.774866e-03 9.714817e-06 3.805106e-03 4.729834e-03 4.728031e-03 1.696372e-02 1.218340e-02 1.682071e-02 
    15.5                3.936622e-03 3.930812e-03 1.022780e-02 4.302122e-03 8.042502e-03 1.054413e-05 3.919414e-03 4.860676e-03 4.859052e-03 1.799996e-02 1.256906e-02 1.781406e-02 
    16.5                3.961196e-03 3.955614e-03 1.050989e-02 4.382696e-03 8.166921e-03 1.073882e-05 3.944606e-03 4.905852e-03 4.904210e-03 1.838721e-02 1.270727e-02 1.815518e-02 
    17.5                3.982693e-03 3.978338e-03 1.089739e-02 4.473319e-03 8.255594e-03 1.100824e-05 3.968771e-03 4.854515e-03 4.852717e-03 1.884940e-02 1.281087e-02 1.858540e-02 
    18.5                4.020321e-03 4.014254e-03 1.130538e-02 4.555569e-03 8.430960e-03 1.133526e-05 4.004940e-03 4.866476e-03 4.864406e-03 1.936901e-02 1.300626e-02 1.903267e-02 
    19.5                4.033593e-03 4.029352e-03 1.140309e-02 4.652592e-03 8.377374e-03 1.160023e-05 4.021177e-03 4.746162e-03 4.744551e-03 1.950003e-02 1.298126e-02 1.918580e-02 
    20.5                3.929567e-03 3.925814e-03 1.120586e-02 4.617832e-03 8.233031e-03 1.129527e-05 3.917354e-03 4.585714e-03 4.583856e-03 1.918969e-02 1.270525e-02 1.880809e-02 
    21.5                3.962424e-03 3.958569e-03 1.138036e-02 4.737324e-03 8.340914e-03 1.114951e-05 3.951220e-03 4.532798e-03 4.531004e-03 1.950308e-02 1.284146e-02 1.909319e-02 
    22.5                3.935278e-03 3.931234e-03 1.153184e-02 4.682444e-03 8.228798e-03 1.134372e-05 3.925601e-03 4.355789e-03 4.353706e-03 1.949720e-02 1.271039e-02 1.910236e-02 
    23.5                3.736049e-03 3.732823e-03 1.082593e-02 4.516207e-03 7.824878e-03 1.081673e-05 3.726712e-03 4.087408e-03 4.086243e-03 1.847864e-02 1.207397e-02 1.807006e-02 
    24.5                3.623423e-03 3.620263e-03 1.038318e-02 4.500831e-03 7.574144e-03 1.063762e-05 3.614405e-03 3.862916e-03 3.861040e-03 1.790610e-02 1.169758e-02 1.749282e-02 
    25.5                3.527030e-03 3.524690e-03 1.002686e-02 4.404345e-03 7.346757e-03 1.060860e-05 3.518752e-03 3.668968e-03 3.667621e-03 1.736731e-02 1.136647e-02 1.695638e-02 
    26.5                3.474407e-03 3.471873e-03 9.623697e-03 4.476509e-03 7.202271e-03 1.019650e-05 3.466516e-03 3.504764e-03 3.503199e-03 1.697684e-02 1.116754e-02 1.656274e-02 
    27.5                3.366105e-03 3.363025e-03 9.040925e-03 4.345991e-03 6.856032e-03 9.966412e-06 3.357236e-03 3.281725e-03 3.280111e-03 1.612558e-02 1.072242e-02 1.575482e-02 
    28.5                3.253293e-03 3.252216e-03 8.580712e-03 4.299255e-03 6.650950e-03 9.378528e-06 3.247243e-03 3.020019e-03 3.018764e-03 1.553390e-02 1.038378e-02 1.514192e-02 
    29.5                3.053786e-03 3.050810e-03 8.026564e-03 3.999573e-03 6.172154e-03 8.973064e-06 3.046660e-03 2.735711e-03 2.734551e-03 1.447517e-02 9.690967e-03 1.413533e-02 
    30.5                2.923758e-03 2.922643e-03 7.720891e-03 3.950378e-03 5.982617e-03 8.535036e-06 2.918960e-03 2.587464e-03 2.586038e-03 1.403472e-02 9.335644e-03 1.365652e-02 
    31.5                2.909992e-03 2.908230e-03 7.385397e-03 4.017875e-03 5.893919e-03 8.227245e-06 2.905045e-03 2.417448e-03 2.416502e-03 1.374136e-02 9.239856e-03 1.335983e-02 
    32.5                2.798659e-03 2.797810e-03 6.712606e-03 3.859331e-03 5.594637e-03 7.550250e-06 2.794462e-03 2.217817e-03 2.216784e-03 1.282003e-02 8.834975e-03 1.248791e-02 
    33.5                2.812173e-03 2.812354e-03 6.396584e-03 4.009021e-03 5.638420e-03 7.208216e-06 2.809557e-03 2.077759e-03 2.076584e-03 1.268864e-02 8.889995e-03 1.233620e-02 
    34.5                2.848765e-03 2.845966e-03 6.369714e-03 4.019838e-03 5.633960e-03 7.200385e-06 2.843212e-03 2.013421e-03 2.012420e-03 1.267041e-02 8.939982e-03 1.232993e-02 
    35.5                2.738510e-03 2.740952e-03 5.640664e-03 3.855496e-03 5.355650e-03 6.336638e-06 2.737122e-03 1.863361e-03 1.862635e-03 1.171570e-02 8.553918e-03 1.141995e-02 
    36.5                2.757003e-03 2.755833e-03 5.511658e-03 3.961678e-03 5.426886e-03 6.133926e-06 2.753607e-03 1.756155e-03 1.755072e-03 1.172769e-02 8.640408e-03 1.141490e-02 
    37.5                2.830940e-03 2.831693e-03 5.435239e-03 3.975099e-03 5.563145e-03 6.060567e-06 2.829005e-03 1.710470e-03 1.709540e-03 1.177432e-02 8.861316e-03 1.144320e-02 
    38.5                2.988977e-03 2.990428e-03 5.255913e-03 4.210248e-03 5.886762e-03 5.862251e-06 2.988363e-03 1.665220e-03 1.664369e-03 1.203390e-02 9.359224e-03 1.168967e-02 
    39.5                2.952835e-03 2.956403e-03 5.050881e-03 4.067230e-03 5.663356e-03 5.756245e-06 2.953697e-03 1.599464e-03 1.598465e-03 1.158409e-02 9.142081e-03 1.134410e-02 
    40.5                2.985666e-03 2.987659e-03 4.915375e-03 4.143907e-03 5.802934e-03 5.477296e-06 2.984631e-03 1.532943e-03 1.532207e-03 1.162874e-02 9.298143e-03 1.132504e-02 
    41.5                3.274229e-03 3.275621e-03 4.803567e-03 4.411413e-03 6.331509e-03 5.370018e-06 3.272394e-03 1.571205e-03 1.570494e-03 1.213589e-02 1.015938e-02 1.184673e-02 
    42.5                3.248690e-03 3.248871e-03 4.460592e-03 4.206519e-03 6.124844e-03 5.157189e-06 3.245483e-03 1.516120e-03 1.514981e-03 1.153560e-02 9.970582e-03 1.136403e-02 
    43.5                3.314011e-03 3.316854e-03 4.167457e-03 4.301449e-03 6.413522e-03 4.744488e-06 3.312117e-03 1.501250e-03 1.500202e-03 1.158595e-02 1.029086e-02 1.132354e-02 
    44.5                3.666312e-03 3.665855e-03 4.346276e-03 4.681934e-03 7.024861e-03 4.960890e-06 3.662813e-03 1.579630e-03 1.578684e-03 1.247292e-02 1.132845e-02 1.224551e-02 
    45.5                3.680569e-03 3.684181e-03 4.152665e-03 4.572595e-03 6.967980e-03 4.939720e-06 3.680054e-03 1.514242e-03 1.513313e-03 1.219763e-02 1.131455e-02 1.202482e-02 
    46.5                3.777618e-03 3.774279e-03 3.991598e-03 4.569894e-03 7.120728e-03 4.845592e-06 3.769472e-03 1.513542e-03 1.512829e-03 1.219916e-02 1.157696e-02 1.206501e-02 
    47.5                3.939915e-03 3.945551e-03 3.826851e-03 4.664458e-03 7.560622e-03 4.793706e-06 3.941044e-03 1.568154e-03 1.567240e-03 1.249905e-02 1.218863e-02 1.228907e-02 
    48.5                4.367279e-03 4.369034e-03 3.726909e-03 4.961850e-03 8.239503e-03 4.891696e-06 4.363062e-03 1.607890e-03 1.606865e-03 1.318299e-02 1.338612e-02 1.311938e-02 
    49.5                4.651956e-03 4.658160e-03 3.712701e-03 5.266157e-03 9.013578e-03 5.024340e-06 4.651639e-03 1.686208e-03 1.685402e-03 1.402775e-02 1.444950e-02 1.379103e-02 
    50.5                5.348213e-03 5.358959e-03 3.678163e-03 5.732604e-03 1.028321e-02 5.367113e-06 5.350951e-03 1.787292e-03 1.786344e-03 1.540258e-02 1.653889e-02 1.524232e-02 
    51.5                6.014683e-03 6.023882e-03 3.575936e-03 6.059729e-03 1.129400e-02 5.827201e-06 6.015577e-03 1.857638e-03 1.856515e-03 1.641340e-02 1.839591e-02 1.653739e-02 
    52.5                6.106707e-03 6.108397e-03 3.263190e-03 5.883582e-03 1.127248e-02 5.969605e-06 6.100778e-03 1.880984e-03 1.879709e-03 1.604323e-02 1.853126e-02 1.638116e-02 
    53.5                6.207217e-03 6.208937e-03 3.012442e-03 5.824041e-03 1.140640e-02 5.798664e-06 6.201716e-03 1.883552e-03 1.882634e-03 1.591989e-02 1.878788e-02 1.636233e-02 
    54.5                5.936954e-03 5.938796e-03 2.733505e-03 5.427277e-03 1.073862e-02 5.691245e-06 5.930783e-03 1.840897e-03 1.839894e-03 1.487733e-02 1.786713e-02 1.546065e-02 
    55.5                5.914149e-03 5.918458e-03 2.538172e-03 5.391942e-03 1.081221e-02 5.343967e-06 5.910319e-03 1.819480e-03 1.818391e-03 1.475605e-02 1.785964e-02 1.528691e-02 
    56.5                5.703273e-03 5.705804e-03 2.385010e-03 5.109882e-03 1.030481e-02 5.282433e-06 5.698280e-03 1.758692e-03 1.757843e-03 1.402000e-02 1.713989e-02 1.462822e-02 
    57.5                5.227900e-03 5.230276e-03 2.029962e-03 4.555723e-03 9.400074e-03 4.896217e-06 5.223422e-03 1.630622e-03 1.629846e-03 1.262408e-02 1.568902e-02 1.324118e-02 
    58.5                5.001364e-03 5.001115e-03 1.793781e-03 4.311907e-03 9.001940e-03 4.435077e-06 4.994326e-03 1.500615e-03 1.499760e-03 1.193982e-02 1.499537e-02 1.254703e-02 
    59.5                4.769068e-03 4.769656e-03 1.603180e-03 4.045721e-03 8.579429e-03 4.188919e-06 4.763605e-03 1.367762e-03 1.367226e-03 1.126653e-02 1.429558e-02 1.186238e-02 
    60.5                4.346336e-03 4.352073e-03 1.350874e-03 3.606857e-03 7.794354e-03 3.869943e-06 4.346523e-03 1.197272e-03 1.196581e-03 1.011578e-02 1.302594e-02 1.071014e-02 
    61.5                3.929270e-03 3.930491e-03 1.108945e-03 3.089400e-03 6.792878e-03 3.526463e-06 3.925585e-03 1.040327e-03 1.039821e-03 8.738333e-03 1.157721e-02 9.507329e-03 
    62.5                3.207216e-03 3.201390e-03 8.368056e-04 2.498780e-03 5.554211e-03 2.874036e-06 3.197891e-03 8.641732e-04 8.636201e-04 7.073860e-03 9.455674e-03 7.711826e-03 
    63.5                2.625807e-03 2.625777e-03 6.472234e-04 2.011657e-03 4.530297e-03 2.344481e-06 2.622704e-03 6.978518e-04 6.975205e-04 5.728395e-03 7.730541e-03 6.274202e-03 
    64.5                2.099396e-03 2.098811e-03 4.808058e-04 1.587477e-03 3.620954e-03 1.889866e-06 2.096282e-03 5.350285e-04 5.347410e-04 4.540805e-03 6.184382e-03 4.986814e-03 
    65.5                1.651452e-03 1.649702e-03 3.431425e-04 1.195911e-03 2.763609e-03 1.493920e-06 1.647865e-03 3.929571e-04 3.927731e-04 3.437777e-03 4.797666e-03 3.871445e-03 
    66.5                1.199052e-03 1.196882e-03 2.275536e-04 8.382188e-04 1.964742e-03 1.103969e-06 1.195835e-03 2.649937e-04 2.648290e-04 2.425922e-03 3.452269e-03 2.782614e-03 
    67.5                7.835750e-04 7.828763e-04 1.317501e-04 5.262541e-04 1.258662e-03 7.513140e-07 7.823004e-04 1.585943e-04 1.585218e-04 1.536668e-03 2.240429e-03 1.798983e-03 
    68.5                4.710506e-04 4.707082e-04 6.876562e-05 2.926591e-04 7.079024e-04 4.756456e-07 4.704140e-04 8.070574e-05 8.065786e-05 8.568670e-04 1.310223e-03 1.062447e-03 
    69.5                2.249058e-04 2.238510e-04 2.788849e-05 1.275204e-04 3.129608e-04 2.408288e-07 2.238695e-04 3.198333e-05 3.195838e-05 3.745379e-04 6.067704e-04 4.972081e-04 
    70.5                7.195817e-05 7.144860e-05 7.935855e-06 3.283983e-05 8.038500e-05 9.925047e-08 7.143533e-05 8.022388e-06 8.009829e-06 9.652651e-05 1.807553e-04 1.542393e-04 
    71.5                1.173536e-05 1.161808e-05 9.469221e-07 4.253517e-06 1.062211e-05 1.973566e-08 1.161352e-05 1.061088e-06 1.058827e-06 1.254294e-05 2.783347e-05 2.450125e-05 
    72.5                6.917314e-07 6.771609e-07 2.902605e-08 9.630033e-08 2.333959e-07 2.019150e-09 6.756335e-07 3.299654e-08 3.272049e-08 2.856733e-07 1.405419e-06 1.377305e-06 
    73.5                0.000000e+00 0.000000e+00 0.000000e+00 0.000000e+00 0.000000e+00 0.000000e+00 0.000000e+00 0.000000e+00 0.000000e+00 0.000000e+00 0.000000e+00 0.000000e+00 
    74.5                0.000000e+00 0.000000e+00 0.000000e+00 0.000000e+00 0.000000e+00 0.000000e+00 0.000000e+00 0.000000e+00 0.000000e+00 0.000000e+00 0.000000e+00 0.000000e+00 
    75.5                0.000000e+00 0.000000e+00 0.000000e+00 0.000000e+00 0.000000e+00 0.000000e+00 0.000000e+00 0.000000e+00 0.000000e+00 0.000000e+00 0.000000e+00 0.000000e+00 
    76.5                0.000000e+00 0.000000e+00 0.000000e+00 0.000000e+00 0.000000e+00 0.000000e+00 0.000000e+00 0.000000e+00 0.000000e+00 0.000000e+00 0.000000e+00 0.000000e+00 
    77.5                0.000000e+00 0.000000e+00 0.000000e+00 0.000000e+00 0.000000e+00 0.000000e+00 0.000000e+00 0.000000e+00 0.000000e+00 0.000000e+00 0.000000e+00 0.000000e+00 
    78.5                0.000000e+00 0.000000e+00 0.000000e+00 0.000000e+00 0.000000e+00 0.000000e+00 0.000000e+00 0.000000e+00 0.000000e+00 0.000000e+00 0.000000e+00 0.000000e+00 
    79.5                0.000000e+00 0.000000e+00 0.000000e+00 0.000000e+00 0.000000e+00 0.000000e+00 0.000000e+00 0.000000e+00 0.000000e+00 0.000000e+00 0.000000e+00 0.000000e+00 


