# 80 rows of flux data
# 12 columns of flux data
# 
# total cross-sectional flux  1.072021e+00 /m^2/yr
#
#                             +x ram      -x wake      +y port -y starboard    +z zenith     -z nadir        Earth          Sun     anti-Sun      rot (x)      rot (y)      rot (z) 
# average speed (km/s)         37.63        37.64        42.64        29.83        32.82        41.54        37.69        27.86        27.86        33.95        35.02        36.04 
# total flux (#/m2/yr)  2.421178e-01 2.419180e-01 2.002279e-01 3.388427e-01 5.755976e-01 3.045955e-04 2.413638e-01 1.765717e-01 1.765935e-01 8.897686e-01 8.309083e-01 8.005419e-01 
# velocity (km/s)
     0.5                0.000000e+00 0.000000e+00 0.000000e+00 0.000000e+00 0.000000e+00 0.000000e+00 0.000000e+00 0.000000e+00 0.000000e+00 0.000000e+00 0.000000e+00 0.000000e+00 
     1.5                0.000000e+00 0.000000e+00 0.000000e+00 0.000000e+00 0.000000e+00 0.000000e+00 0.000000e+00 0.000000e+00 0.000000e+00 0.000000e+00 0.000000e+00 0.000000e+00 
     2.5                8.952126e-05 9.003241e-05 4.022473e-05 1.102009e-04 1.232852e-04 7.985367e-08 8.907149e-05 7.624197e-05 7.643668e-05 2.147846e-04 2.368580e-04 2.594104e-04 
     3.5                4.417007e-04 4.420992e-04 3.637888e-04 4.334179e-04 7.067970e-04 4.197927e-07 4.394885e-04 4.086947e-04 4.085614e-04 1.176183e-03 1.242459e-03 1.316359e-03 
     4.5                9.558554e-04 9.552425e-04 1.014719e-03 8.449180e-04 1.729181e-03 1.005890e-06 9.508269e-04 9.860528e-04 9.862145e-04 2.820181e-03 2.847714e-03 2.958649e-03 
     5.5                1.511515e-03 1.509758e-03 1.665901e-03 1.392202e-03 2.946053e-03 1.708258e-06 1.502578e-03 1.692449e-03 1.692731e-03 4.738650e-03 4.670223e-03 4.769421e-03 
     6.5                2.066355e-03 2.063504e-03 2.239386e-03 2.071384e-03 4.365293e-03 2.392848e-06 2.053350e-03 2.421716e-03 2.422192e-03 6.855848e-03 6.662763e-03 6.623407e-03 
     7.5                2.553142e-03 2.550431e-03 2.657454e-03 2.880608e-03 5.762987e-03 2.927421e-06 2.536528e-03 3.071541e-03 3.071873e-03 8.922837e-03 8.523481e-03 8.347224e-03 
     8.5                2.965804e-03 2.961978e-03 2.937221e-03 3.648602e-03 7.100093e-03 3.385110e-06 2.946102e-03 3.629169e-03 3.630047e-03 1.080862e-02 1.023895e-02 9.816874e-03 
     9.5                3.348209e-03 3.344405e-03 3.157792e-03 4.466175e-03 8.346236e-03 3.746815e-06 3.325436e-03 4.144688e-03 4.145434e-03 1.258658e-02 1.182201e-02 1.122873e-02 
    10.5                3.631161e-03 3.626336e-03 3.245735e-03 5.287901e-03 9.488735e-03 3.943412e-06 3.605872e-03 4.580685e-03 4.581771e-03 1.418600e-02 1.317521e-02 1.238082e-02 
    11.5                3.955313e-03 3.951121e-03 3.347785e-03 6.261810e-03 1.086055e-02 4.205937e-06 3.927121e-03 5.089316e-03 5.090059e-03 1.607207e-02 1.479172e-02 1.374579e-02 
    12.5                4.161895e-03 4.156579e-03 3.342344e-03 6.995580e-03 1.188893e-02 4.233297e-06 4.131369e-03 5.433266e-03 5.434256e-03 1.742734e-02 1.591558e-02 1.462919e-02 
    13.5                4.234012e-03 4.229015e-03 3.242257e-03 7.588269e-03 1.278514e-02 4.215749e-06 4.203858e-03 5.561239e-03 5.562310e-03 1.847347e-02 1.680324e-02 1.514359e-02 
    14.5                4.248408e-03 4.244113e-03 3.116704e-03 8.148113e-03 1.308580e-02 4.099627e-06 4.218468e-03 5.594975e-03 5.595878e-03 1.897826e-02 1.706534e-02 1.552773e-02 
    15.5                4.350891e-03 4.345410e-03 2.973185e-03 8.811869e-03 1.400866e-02 3.998633e-06 4.320299e-03 5.675252e-03 5.676477e-03 2.006274e-02 1.798154e-02 1.608187e-02 
    16.5                4.329278e-03 4.323977e-03 2.856286e-03 9.067650e-03 1.414830e-02 3.949239e-06 4.299071e-03 5.671951e-03 5.673164e-03 2.026579e-02 1.806953e-02 1.616569e-02 
    17.5                4.352436e-03 4.346953e-03 2.772286e-03 9.396290e-03 1.446937e-02 3.898537e-06 4.322202e-03 5.650763e-03 5.651759e-03 2.069258e-02 1.835933e-02 1.639558e-02 
    18.5                4.355818e-03 4.351244e-03 2.620456e-03 9.774172e-03 1.474886e-02 3.831105e-06 4.326256e-03 5.585838e-03 5.586499e-03 2.106045e-02 1.858126e-02 1.657298e-02 
    19.5                4.350408e-03 4.345111e-03 2.498840e-03 9.897992e-03 1.476856e-02 3.708470e-06 4.320584e-03 5.473546e-03 5.474830e-03 2.108449e-02 1.855762e-02 1.654659e-02 
    20.5                4.246460e-03 4.241017e-03 2.397662e-03 9.815837e-03 1.456094e-02 3.482434e-06 4.217727e-03 5.265881e-03 5.266684e-03 2.080097e-02 1.820241e-02 1.622689e-02 
    21.5                4.190202e-03 4.186794e-03 2.153662e-03 1.001270e-02 1.447422e-02 3.288408e-06 4.163344e-03 5.076666e-03 5.077647e-03 2.068957e-02 1.804307e-02 1.610516e-02 
    22.5                4.218282e-03 4.212954e-03 2.104348e-03 1.014259e-02 1.473070e-02 3.297221e-06 4.191747e-03 4.973324e-03 4.974148e-03 2.096016e-02 1.826382e-02 1.619428e-02 
    23.5                3.978189e-03 3.973174e-03 1.939422e-03 9.606819e-03 1.392489e-02 3.028869e-06 3.953256e-03 4.650219e-03 4.651119e-03 1.982995e-02 1.724016e-02 1.525749e-02 
    24.5                3.828030e-03 3.824156e-03 1.789015e-03 9.316480e-03 1.323629e-02 2.902287e-06 3.804531e-03 4.369595e-03 4.370367e-03 1.895748e-02 1.641469e-02 1.466238e-02 
    25.5                3.707000e-03 3.702341e-03 1.636111e-03 9.059665e-03 1.291977e-02 2.794209e-06 3.683810e-03 4.104715e-03 4.105366e-03 1.841692e-02 1.596206e-02 1.413253e-02 
    26.5                3.635413e-03 3.631801e-03 1.572919e-03 8.840573e-03 1.235328e-02 2.584433e-06 3.613309e-03 3.900854e-03 3.901682e-03 1.777493e-02 1.535194e-02 1.377990e-02 
    27.5                3.537067e-03 3.533698e-03 1.467420e-03 8.442496e-03 1.190166e-02 2.514882e-06 3.515562e-03 3.691908e-03 3.692289e-03 1.709126e-02 1.480655e-02 1.320027e-02 
    28.5                3.399740e-03 3.395422e-03 1.350503e-03 8.153344e-03 1.130989e-02 2.329993e-06 3.380056e-03 3.426647e-03 3.427478e-03 1.635777e-02 1.409480e-02 1.266746e-02 
    29.5                3.222669e-03 3.219812e-03 1.210674e-03 7.644698e-03 1.074935e-02 2.202517e-06 3.204694e-03 3.103068e-03 3.103533e-03 1.544791e-02 1.337244e-02 1.188341e-02 
    30.5                3.034756e-03 3.031851e-03 1.081829e-03 7.411230e-03 1.012343e-02 2.147237e-06 3.018613e-03 2.861254e-03 2.861603e-03 1.466531e-02 1.258178e-02 1.131124e-02 
    31.5                2.987778e-03 2.984996e-03 9.963824e-04 7.254270e-03 9.738022e-03 1.968333e-06 2.972570e-03 2.693424e-03 2.693866e-03 1.421910e-02 1.215844e-02 1.102361e-02 
    32.5                2.860812e-03 2.856583e-03 8.781472e-04 6.752896e-03 9.166022e-03 1.898261e-06 2.846688e-03 2.459855e-03 2.460212e-03 1.336092e-02 1.150005e-02 1.034201e-02 
    33.5                2.855000e-03 2.852645e-03 8.630695e-04 6.646395e-03 8.759663e-03 1.962721e-06 2.842443e-03 2.265276e-03 2.265479e-03 1.300006e-02 1.113460e-02 1.024263e-02 
    34.5                2.894673e-03 2.892800e-03 8.178748e-04 6.675519e-03 8.831181e-03 2.015016e-06 2.882686e-03 2.171343e-03 2.171660e-03 1.308310e-02 1.123496e-02 1.027727e-02 
    35.5                2.767133e-03 2.763242e-03 7.871233e-04 6.091723e-03 8.138617e-03 2.146517e-06 2.755607e-03 2.026838e-03 2.027250e-03 1.213482e-02 1.049157e-02 9.606240e-03 
    36.5                2.773559e-03 2.771439e-03 8.037296e-04 6.063959e-03 7.838992e-03 2.167032e-06 2.763821e-03 1.904599e-03 1.904876e-03 1.191566e-02 1.024206e-02 9.626720e-03 
    37.5                2.829083e-03 2.827315e-03 8.272148e-04 6.036827e-03 7.954058e-03 2.460930e-06 2.819284e-03 1.836457e-03 1.836580e-03 1.206449e-02 1.043641e-02 9.697448e-03 
    38.5                2.894039e-03 2.892412e-03 8.420412e-04 6.060979e-03 7.593114e-03 2.956358e-06 2.885786e-03 1.752374e-03 1.752670e-03 1.188164e-02 1.026040e-02 9.841151e-03 
    39.5                3.028784e-03 3.024073e-03 1.142643e-03 5.837292e-03 7.755509e-03 3.743347e-06 3.021677e-03 1.712500e-03 1.712713e-03 1.213462e-02 1.057747e-02 1.013683e-02 
    40.5                2.993959e-03 2.993822e-03 1.191354e-03 5.801070e-03 7.534596e-03 4.110834e-06 2.987072e-03 1.647199e-03 1.647505e-03 1.200480e-02 1.036243e-02 1.009334e-02 
    41.5                3.133166e-03 3.131923e-03 1.222917e-03 5.822185e-03 7.425965e-03 5.133631e-06 3.126803e-03 1.604934e-03 1.604953e-03 1.204837e-02 1.051732e-02 1.034810e-02 
    42.5                3.317297e-03 3.316313e-03 1.660537e-03 5.420606e-03 7.522148e-03 6.298448e-06 3.310785e-03 1.611852e-03 1.612122e-03 1.222708e-02 1.089175e-02 1.069847e-02 
    43.5                3.256451e-03 3.253270e-03 1.856293e-03 5.079997e-03 7.076767e-03 6.750298e-06 3.251429e-03 1.552907e-03 1.552843e-03 1.176599e-02 1.049302e-02 1.049039e-02 
    44.5                3.605741e-03 3.604904e-03 2.221136e-03 5.302170e-03 7.288218e-03 7.447066e-06 3.599987e-03 1.611058e-03 1.611135e-03 1.245306e-02 1.121438e-02 1.148480e-02 
    45.5                3.758796e-03 3.757940e-03 2.666262e-03 5.040586e-03 7.629464e-03 7.250228e-06 3.754524e-03 1.648337e-03 1.648460e-03 1.292906e-02 1.172732e-02 1.189032e-02 
    46.5                3.738746e-03 3.740413e-03 2.695915e-03 4.846041e-03 7.391186e-03 7.149114e-06 3.735911e-03 1.587122e-03 1.587151e-03 1.260170e-02 1.151758e-02 1.174526e-02 
    47.5                3.891587e-03 3.885724e-03 2.932803e-03 4.603663e-03 7.431342e-03 7.351143e-06 3.886958e-03 1.584110e-03 1.584183e-03 1.262488e-02 1.181251e-02 1.197721e-02 
    48.5                4.123850e-03 4.124764e-03 3.255904e-03 4.511928e-03 7.386533e-03 8.037990e-06 4.119723e-03 1.639902e-03 1.639787e-03 1.275309e-02 1.220113e-02 1.253048e-02 
    49.5                4.530683e-03 4.533644e-03 3.989989e-03 4.443859e-03 7.851142e-03 8.762374e-06 4.528936e-03 1.687865e-03 1.687421e-03 1.365855e-02 1.321394e-02 1.369302e-02 
    50.5                4.928301e-03 4.928106e-03 4.467231e-03 4.349737e-03 8.153467e-03 9.785844e-06 4.925166e-03 1.753339e-03 1.753148e-03 1.422568e-02 1.413073e-02 1.462527e-02 
    51.5                5.659299e-03 5.659214e-03 5.618489e-03 4.170128e-03 8.888838e-03 1.093442e-05 5.655900e-03 1.855237e-03 1.855264e-03 1.556418e-02 1.591211e-02 1.656337e-02 
    52.5                6.148943e-03 6.151261e-03 6.819726e-03 3.743455e-03 9.557126e-03 1.101405e-05 6.148395e-03 1.923758e-03 1.923300e-03 1.660557e-02 1.722816e-02 1.795707e-02 
    53.5                6.264607e-03 6.262552e-03 7.289521e-03 3.398579e-03 9.500790e-03 1.087589e-05 6.265020e-03 1.957261e-03 1.957137e-03 1.653479e-02 1.740121e-02 1.822437e-02 
    54.5                6.354527e-03 6.346509e-03 7.637386e-03 3.055329e-03 9.477394e-03 1.060404e-05 6.356482e-03 1.957952e-03 1.958269e-03 1.644278e-02 1.753154e-02 1.837430e-02 
    55.5                6.149278e-03 6.145602e-03 7.777203e-03 2.813435e-03 9.216641e-03 1.020316e-05 6.150452e-03 1.924288e-03 1.923992e-03 1.608167e-02 1.702162e-02 1.796425e-02 
    56.5                6.123196e-03 6.120461e-03 7.703342e-03 2.609708e-03 8.965554e-03 9.694409e-06 6.124183e-03 1.895010e-03 1.894711e-03 1.560040e-02 1.678133e-02 1.770384e-02 
    57.5                5.732844e-03 5.727771e-03 7.516044e-03 2.155923e-03 8.502615e-03 8.967433e-06 5.734685e-03 1.830915e-03 1.830619e-03 1.466895e-02 1.580222e-02 1.661466e-02 
    58.5                5.333575e-03 5.330706e-03 7.054840e-03 1.873181e-03 7.738121e-03 8.254382e-06 5.336709e-03 1.704238e-03 1.704081e-03 1.339907e-02 1.459532e-02 1.539076e-02 
    59.5                5.090858e-03 5.088757e-03 6.763820e-03 1.659873e-03 7.265553e-03 7.585884e-06 5.092333e-03 1.573473e-03 1.573425e-03 1.257009e-02 1.383815e-02 1.460788e-02 
    60.5                4.832879e-03 4.825022e-03 6.627464e-03 1.362236e-03 6.919294e-03 6.828308e-06 4.835697e-03 1.425372e-03 1.425467e-03 1.190706e-02 1.315266e-02 1.387118e-02 
    61.5                4.377406e-03 4.377881e-03 6.076133e-03 1.104640e-03 6.213277e-03 5.821977e-06 4.379554e-03 1.256102e-03 1.255885e-03 1.062998e-02 1.188597e-02 1.253655e-02 
    62.5                3.886122e-03 3.881387e-03 5.715229e-03 8.247221e-04 5.625974e-03 4.811391e-06 3.889499e-03 1.093728e-03 1.093565e-03 9.583753e-03 1.062487e-02 1.124328e-02 
    63.5                3.177416e-03 3.171246e-03 4.696369e-03 6.333964e-04 4.579347e-03 3.807607e-06 3.180310e-03 9.122046e-04 9.122063e-04 7.762697e-03 8.664846e-03 9.175847e-03 
    64.5                2.604679e-03 2.602921e-03 3.897475e-03 4.711037e-04 3.745332e-03 3.012098e-06 2.607479e-03 7.391460e-04 7.390546e-04 6.340824e-03 7.102998e-03 7.526587e-03 
    65.5                2.060982e-03 2.059151e-03 3.117069e-03 3.366218e-04 2.957421e-03 2.338912e-06 2.063500e-03 5.683074e-04 5.682837e-04 4.989971e-03 5.616394e-03 5.955577e-03 
    66.5                1.616373e-03 1.612602e-03 2.524125e-03 2.252362e-04 2.348067e-03 1.713920e-06 1.618585e-03 4.234628e-04 4.234252e-04 3.940040e-03 4.420371e-03 4.697117e-03 
    67.5                1.156471e-03 1.152039e-03 1.866016e-03 1.324251e-04 1.706221e-03 1.156510e-06 1.158422e-03 2.881975e-04 2.882505e-04 2.845909e-03 3.178867e-03 3.383788e-03 
    68.5                7.550867e-04 7.536360e-04 1.266863e-03 6.995188e-05 1.136090e-03 7.094395e-07 7.566483e-04 1.760805e-04 1.760251e-04 1.883547e-03 2.092703e-03 2.234440e-03 
    69.5                4.424205e-04 4.414039e-04 7.813179e-04 2.843124e-05 6.864032e-04 3.674505e-07 4.437521e-04 9.270130e-05 9.269920e-05 1.128132e-03 1.238899e-03 1.327282e-03 
    70.5                2.084356e-04 2.079849e-04 3.946895e-04 8.084958e-06 3.402480e-04 1.449855e-07 2.091985e-04 3.898801e-05 3.897599e-05 5.531142e-04 5.949294e-04 6.407101e-04 
    71.5                6.336995e-05 6.320341e-05 1.433155e-04 9.371572e-07 1.213492e-04 2.868499e-08 6.377212e-05 1.074777e-05 1.074643e-05 1.944502e-04 1.932400e-04 2.107731e-04 
    72.5                9.613407e-06 9.546764e-06 2.508996e-05 2.801436e-08 2.106536e-05 2.604113e-09 9.712417e-06 1.609008e-06 1.610607e-06 3.330297e-05 3.127791e-05 3.450870e-05 
    73.5                4.932876e-07 4.946050e-07 1.901700e-06 0.000000e+00 1.595133e-06 0.000000e+00 5.027421e-07 6.729731e-08 6.725623e-08 2.490541e-06 1.986825e-06 2.250241e-06 
    74.5                0.000000e+00 0.000000e+00 0.000000e+00 0.000000e+00 0.000000e+00 0.000000e+00 0.000000e+00 0.000000e+00 0.000000e+00 0.000000e+00 0.000000e+00 0.000000e+00 
    75.5                0.000000e+00 0.000000e+00 0.000000e+00 0.000000e+00 0.000000e+00 0.000000e+00 0.000000e+00 0.000000e+00 0.000000e+00 0.000000e+00 0.000000e+00 0.000000e+00 
    76.5                0.000000e+00 0.000000e+00 0.000000e+00 0.000000e+00 0.000000e+00 0.000000e+00 0.000000e+00 0.000000e+00 0.000000e+00 0.000000e+00 0.000000e+00 0.000000e+00 
    77.5                0.000000e+00 0.000000e+00 0.000000e+00 0.000000e+00 0.000000e+00 0.000000e+00 0.000000e+00 0.000000e+00 0.000000e+00 0.000000e+00 0.000000e+00 0.000000e+00 
    78.5                0.000000e+00 0.000000e+00 0.000000e+00 0.000000e+00 0.000000e+00 0.000000e+00 0.000000e+00 0.000000e+00 0.000000e+00 0.000000e+00 0.000000e+00 0.000000e+00 
    79.5                0.000000e+00 0.000000e+00 0.000000e+00 0.000000e+00 0.000000e+00 0.000000e+00 0.000000e+00 0.000000e+00 0.000000e+00 0.000000e+00 0.000000e+00 0.000000e+00 


