# 80 rows of flux data
# 12 columns of flux data
# 
# total cross-sectional flux  1.043599e+00 /m^2/yr
#
#                       +x vernal eq.           -x           +y           -y +z eclip. N. -z eclip. S.        Earth          Sun     anti-Sun      rot (x)      rot (y)      rot (z) 
# average speed (km/s)         37.60        37.71        37.65        37.69        30.87        45.24        39.55        27.85        28.18        33.96        33.96        37.66 
# total flux (#/m2/yr)  2.280094e-01 2.465369e-01 2.349623e-01 2.389530e-01 6.016019e-01 4.230355e-02 3.286639e-01 1.674508e-01 1.701300e-01 8.643709e-01 8.646579e-01 7.448874e-01 
# velocity (km/s)
     0.5                0.000000e+00 0.000000e+00 0.000000e+00 0.000000e+00 0.000000e+00 0.000000e+00 0.000000e+00 0.000000e+00 0.000000e+00 0.000000e+00 0.000000e+00 0.000000e+00 
     1.5                0.000000e+00 0.000000e+00 0.000000e+00 0.000000e+00 0.000000e+00 0.000000e+00 0.000000e+00 0.000000e+00 0.000000e+00 0.000000e+00 0.000000e+00 0.000000e+00 
     2.5                9.272523e-05 6.936467e-05 7.857314e-05 8.192861e-05 1.419001e-04 1.427148e-05 1.292498e-04 8.091345e-05 8.302314e-05 2.477892e-04 2.489122e-04 2.531387e-04 
     3.5                4.594474e-04 4.021128e-04 4.353713e-04 4.281052e-04 6.758442e-04 8.676789e-05 6.903282e-04 4.267045e-04 4.495786e-04 1.268898e-03 1.268629e-03 1.354258e-03 
     4.5                9.117494e-04 9.178689e-04 9.162798e-04 9.124477e-04 1.488558e-03 1.856802e-04 1.435655e-03 9.580324e-04 9.872999e-04 2.735269e-03 2.735609e-03 2.872560e-03 
     5.5                1.394889e-03 1.472107e-03 1.434274e-03 1.440995e-03 2.529696e-03 2.780945e-04 2.199197e-03 1.588639e-03 1.615788e-03 4.433463e-03 4.430138e-03 4.510016e-03 
     6.5                1.846979e-03 2.048159e-03 1.935216e-03 1.967135e-03 3.850151e-03 3.622899e-04 2.918743e-03 2.237052e-03 2.251411e-03 6.340639e-03 6.338210e-03 6.124654e-03 
     7.5                2.246256e-03 2.569090e-03 2.383271e-03 2.438821e-03 5.291115e-03 4.239165e-04 3.525303e-03 2.827084e-03 2.829083e-03 8.247144e-03 8.241709e-03 7.568511e-03 
     8.5                2.635871e-03 3.028792e-03 2.783035e-03 2.857591e-03 6.727651e-03 4.681614e-04 4.045539e-03 3.371620e-03 3.365371e-03 1.006447e-02 1.008069e-02 8.878172e-03 
     9.5                2.982251e-03 3.360166e-03 3.130942e-03 3.201794e-03 8.123400e-03 5.039561e-04 4.475388e-03 3.847004e-03 3.843216e-03 1.174884e-02 1.175926e-02 9.955590e-03 
    10.5                3.298500e-03 3.654683e-03 3.445349e-03 3.516161e-03 9.520298e-03 5.278261e-04 4.814962e-03 4.293325e-03 4.299811e-03 1.337565e-02 1.337693e-02 1.092945e-02 
    11.5                3.605098e-03 3.961668e-03 3.739958e-03 3.808801e-03 1.116633e-02 5.430526e-04 5.150271e-03 4.747932e-03 4.763481e-03 1.519818e-02 1.521112e-02 1.187140e-02 
    12.5                3.743967e-03 4.248550e-03 3.943977e-03 4.047967e-03 1.243404e-02 5.329829e-04 5.344028e-03 5.065532e-03 5.083658e-03 1.655366e-02 1.655712e-02 1.255374e-02 
    13.5                3.804611e-03 4.386236e-03 4.008592e-03 4.132522e-03 1.354999e-02 5.172152e-04 5.389658e-03 5.196746e-03 5.215726e-03 1.762765e-02 1.765655e-02 1.282564e-02 
    14.5                3.868746e-03 4.348610e-03 4.046644e-03 4.147198e-03 1.418077e-02 5.051057e-04 5.375790e-03 5.250986e-03 5.273861e-03 1.820031e-02 1.821570e-02 1.288888e-02 
    15.5                3.977188e-03 4.471737e-03 4.149513e-03 4.254535e-03 1.537597e-02 4.876312e-04 5.438379e-03 5.361453e-03 5.383652e-03 1.935237e-02 1.936996e-02 1.323415e-02 
    16.5                3.980681e-03 4.440936e-03 4.165146e-03 4.264209e-03 1.569837e-02 4.806778e-04 5.395254e-03 5.378913e-03 5.400741e-03 1.962385e-02 1.962327e-02 1.323415e-02 
    17.5                3.984183e-03 4.487175e-03 4.168865e-03 4.276939e-03 1.618548e-02 4.592123e-04 5.362303e-03 5.344037e-03 5.365814e-03 2.002934e-02 2.004088e-02 1.328474e-02 
    18.5                4.041673e-03 4.452406e-03 4.196485e-03 4.284570e-03 1.671116e-02 4.350314e-04 5.312889e-03 5.304989e-03 5.326455e-03 2.046981e-02 2.047371e-02 1.333214e-02 
    19.5                4.034261e-03 4.444475e-03 4.182712e-03 4.269825e-03 1.685914e-02 4.260108e-04 5.266651e-03 5.193967e-03 5.216493e-03 2.053000e-02 2.053855e-02 1.330086e-02 
    20.5                3.929424e-03 4.356512e-03 4.099795e-03 4.191467e-03 1.668848e-02 3.920340e-04 5.077029e-03 5.003945e-03 5.025437e-03 2.020604e-02 2.020551e-02 1.302098e-02 
    21.5                3.954331e-03 4.262473e-03 4.070004e-03 4.137214e-03 1.683397e-02 3.743172e-04 4.993456e-03 4.865916e-03 4.885743e-03 2.024129e-02 2.024223e-02 1.290003e-02 
    22.5                3.905754e-03 4.308246e-03 4.072851e-03 4.159977e-03 1.713438e-02 3.535655e-04 4.951093e-03 4.741989e-03 4.760367e-03 2.046528e-02 2.045155e-02 1.291443e-02 
    23.5                3.704722e-03 4.141494e-03 3.845929e-03 3.942546e-03 1.623584e-02 3.252329e-04 4.654091e-03 4.440686e-03 4.457424e-03 1.934995e-02 1.937712e-02 1.228090e-02 
    24.5                3.635196e-03 3.864651e-03 3.726443e-03 3.775315e-03 1.558238e-02 2.961124e-04 4.438646e-03 4.174824e-03 4.190263e-03 1.853082e-02 1.853456e-02 1.178197e-02 
    25.5                3.529185e-03 3.774222e-03 3.634813e-03 3.689661e-03 1.523331e-02 2.863700e-04 4.301079e-03 3.948392e-03 3.963994e-03 1.807579e-02 1.807021e-02 1.148735e-02 
    26.5                3.458081e-03 3.677915e-03 3.542604e-03 3.590496e-03 1.467884e-02 2.761370e-04 4.186017e-03 3.739747e-03 3.755391e-03 1.742804e-02 1.742978e-02 1.120720e-02 
    27.5                3.311648e-03 3.640905e-03 3.431605e-03 3.504149e-03 1.411096e-02 2.572058e-04 4.030436e-03 3.534571e-03 3.548415e-03 1.674291e-02 1.674917e-02 1.090391e-02 
    28.5                3.216860e-03 3.475693e-03 3.312336e-03 3.371195e-03 1.351645e-02 2.346581e-04 3.836687e-03 3.273698e-03 3.286442e-03 1.601157e-02 1.601932e-02 1.050542e-02 
    29.5                3.000089e-03 3.330356e-03 3.132808e-03 3.206149e-03 1.281156e-02 2.055076e-04 3.599680e-03 2.965918e-03 2.976817e-03 1.513585e-02 1.513762e-02 9.950402e-03 
    30.5                2.895398e-03 3.114358e-03 2.961315e-03 3.010632e-03 1.222358e-02 1.883377e-04 3.368496e-03 2.749060e-03 2.758759e-03 1.437814e-02 1.439107e-02 9.410245e-03 
    31.5                2.888445e-03 2.993678e-03 2.931985e-03 2.954995e-03 1.186315e-02 1.667485e-04 3.275256e-03 2.582521e-03 2.591032e-03 1.394713e-02 1.394338e-02 9.246869e-03 
    32.5                2.794033e-03 2.927067e-03 2.800768e-03 2.831352e-03 1.114764e-02 1.485999e-04 3.132091e-03 2.367108e-03 2.375114e-03 1.313869e-02 1.316743e-02 8.918396e-03 
    33.5                2.824733e-03 2.879476e-03 2.790642e-03 2.800609e-03 1.077314e-02 1.424184e-04 3.103599e-03 2.186640e-03 2.195261e-03 1.274999e-02 1.279624e-02 8.871117e-03 
    34.5                2.792957e-03 2.960305e-03 2.818072e-03 2.856856e-03 1.086151e-02 1.305596e-04 3.107499e-03 2.102432e-03 2.109390e-03 1.283602e-02 1.287330e-02 8.977583e-03 
    35.5                2.713036e-03 2.815284e-03 2.725494e-03 2.747333e-03 9.996463e-03 1.293612e-04 2.980460e-03 1.965697e-03 1.972420e-03 1.194096e-02 1.196283e-02 8.639282e-03 
    36.5                2.718244e-03 2.718944e-03 2.763466e-03 2.763539e-03 9.743400e-03 1.370274e-04 2.986094e-03 1.836150e-03 1.844264e-03 1.173459e-02 1.169249e-02 8.610059e-03 
    37.5                2.663954e-03 2.962666e-03 2.808736e-03 2.875693e-03 9.844102e-03 1.465302e-04 3.059532e-03 1.777515e-03 1.785927e-03 1.191759e-02 1.188834e-02 8.885976e-03 
    38.5                2.756843e-03 3.062175e-03 2.845178e-03 2.918383e-03 9.598997e-03 1.737061e-04 3.173397e-03 1.705904e-03 1.717037e-03 1.177597e-02 1.179864e-02 9.098523e-03 
    39.5                2.842261e-03 3.120609e-03 2.941674e-03 3.003139e-03 9.511713e-03 1.939534e-04 3.293302e-03 1.658491e-03 1.670284e-03 1.181807e-02 1.182252e-02 9.350197e-03 
    40.5                2.964373e-03 2.940639e-03 2.998722e-03 2.994351e-03 9.334989e-03 1.836337e-04 3.245018e-03 1.589418e-03 1.600436e-03 1.167641e-02 1.162394e-02 9.343273e-03 
    41.5                3.211950e-03 3.045364e-03 3.200412e-03 3.164044e-03 9.345132e-03 2.202243e-04 3.503670e-03 1.569988e-03 1.584266e-03 1.194562e-02 1.188011e-02 9.907055e-03 
    42.5                3.263177e-03 3.295156e-03 3.265862e-03 3.272461e-03 9.061598e-03 2.833601e-04 3.742784e-03 1.566207e-03 1.584641e-03 1.187866e-02 1.189683e-02 1.028422e-02 
    43.5                3.382010e-03 3.271467e-03 3.285920e-03 3.257575e-03 8.603796e-03 3.442166e-04 3.807796e-03 1.522175e-03 1.543772e-03 1.156652e-02 1.163475e-02 1.035993e-02 
    44.5                3.719279e-03 3.511079e-03 3.607972e-03 3.560748e-03 8.883560e-03 4.902841e-04 4.342410e-03 1.574574e-03 1.604684e-03 1.232019e-02 1.235214e-02 1.130730e-02 
    45.5                3.703464e-03 3.948419e-03 3.705638e-03 3.757026e-03 8.876657e-03 5.931905e-04 4.606213e-03 1.580636e-03 1.614671e-03 1.258043e-02 1.270936e-02 1.185691e-02 
    46.5                3.818744e-03 3.850472e-03 3.763149e-03 3.775915e-03 8.576935e-03 6.511612e-04 4.768287e-03 1.544696e-03 1.583159e-03 1.244581e-02 1.255328e-02 1.194312e-02 
    47.5                4.005965e-03 3.936336e-03 3.994741e-03 3.977118e-03 8.424887e-03 7.293152e-04 5.144948e-03 1.568243e-03 1.614615e-03 1.272805e-02 1.271119e-02 1.250658e-02 
    48.5                4.306660e-03 4.268877e-03 4.198971e-03 4.190175e-03 8.201505e-03 9.085888e-04 5.800242e-03 1.610993e-03 1.672381e-03 1.301531e-02 1.314066e-02 1.332527e-02 
    49.5                4.862417e-03 4.476647e-03 4.643575e-03 4.556537e-03 8.335291e-03 1.073230e-03 6.485055e-03 1.667483e-03 1.740765e-03 1.383878e-02 1.393689e-02 1.456537e-02 
    50.5                5.504655e-03 4.789448e-03 5.262493e-03 5.107043e-03 8.450549e-03 1.327958e-03 7.536072e-03 1.750465e-03 1.842357e-03 1.498978e-02 1.494182e-02 1.622281e-02 
    51.5                6.104567e-03 5.479108e-03 5.949964e-03 5.809889e-03 8.497866e-03 1.619891e-03 8.971758e-03 1.828723e-03 1.945861e-03 1.633640e-02 1.620994e-02 1.834255e-02 
    52.5                6.098922e-03 6.120308e-03 6.233547e-03 6.245238e-03 8.143872e-03 1.780796e-03 9.774828e-03 1.871091e-03 2.002751e-03 1.680026e-02 1.660941e-02 1.940827e-02 
    53.5                5.967320e-03 6.497326e-03 6.260235e-03 6.378050e-03 7.638679e-03 1.851615e-03 1.013278e-02 1.885239e-03 2.023796e-03 1.665748e-02 1.651998e-02 1.971690e-02 
    54.5                5.872484e-03 6.501244e-03 6.129876e-03 6.275520e-03 7.117322e-03 1.890164e-03 1.019390e-02 1.867150e-03 2.006788e-03 1.614366e-02 1.611471e-02 1.945569e-02 
    55.5                5.970268e-03 6.372485e-03 6.014324e-03 6.101695e-03 6.722571e-03 1.869485e-03 1.004945e-02 1.839702e-03 1.976164e-03 1.563773e-02 1.580850e-02 1.920267e-02 
    56.5                5.792053e-03 6.114856e-03 5.919674e-03 5.988434e-03 6.291132e-03 1.872018e-03 9.974242e-03 1.794116e-03 1.929593e-03 1.518221e-02 1.517155e-02 1.870230e-02 
    57.5                5.256820e-03 5.840926e-03 5.526283e-03 5.651436e-03 5.621994e-03 1.775521e-03 9.404233e-03 1.703872e-03 1.830851e-03 1.407059e-02 1.400954e-02 1.749533e-02 
    58.5                4.918914e-03 5.523312e-03 5.152879e-03 5.289727e-03 4.990982e-03 1.699754e-03 8.936528e-03 1.575139e-03 1.695515e-03 1.300251e-02 1.300150e-02 1.640065e-02 
    59.5                4.748127e-03 5.234183e-03 4.896757e-03 5.003337e-03 4.510073e-03 1.660070e-03 8.629088e-03 1.443657e-03 1.560104e-03 1.221274e-02 1.227813e-02 1.560973e-02 
    60.5                4.341443e-03 4.986568e-03 4.575420e-03 4.718624e-03 4.021315e-03 1.557543e-03 8.151702e-03 1.285792e-03 1.394895e-03 1.133212e-02 1.135941e-02 1.462538e-02 
    61.5                3.808763e-03 4.557516e-03 4.080041e-03 4.241102e-03 3.348351e-03 1.415232e-03 7.478930e-03 1.122162e-03 1.222405e-03 1.001058e-02 1.004574e-02 1.311094e-02 
    62.5                3.208645e-03 4.034333e-03 3.497917e-03 3.680699e-03 2.734572e-03 1.200355e-03 6.441720e-03 9.560187e-04 1.041129e-03 8.535955e-03 8.580708e-03 1.132424e-02 
    63.5                2.529512e-03 3.329811e-03 2.874704e-03 3.050867e-03 2.108093e-03 9.901943e-04 5.322177e-03 7.852440e-04 8.553508e-04 6.951907e-03 6.899063e-03 9.250154e-03 
    64.5                2.050689e-03 2.736620e-03 2.308125e-03 2.458367e-03 1.644798e-03 7.983013e-04 4.337155e-03 6.210490e-04 6.773460e-04 5.564948e-03 5.583066e-03 7.505518e-03 
    65.5                1.578687e-03 2.131745e-03 1.830802e-03 1.953252e-03 1.216253e-03 6.200095e-04 3.445501e-03 4.672883e-04 5.115684e-04 4.358795e-03 4.296960e-03 5.886640e-03 
    66.5                1.149782e-03 1.682843e-03 1.377749e-03 1.498540e-03 8.706590e-04 4.616293e-04 2.633023e-03 3.339743e-04 3.673693e-04 3.281574e-03 3.241448e-03 4.484503e-03 
    67.5                7.428276e-04 1.221056e-03 9.484993e-04 1.054118e-03 5.633286e-04 3.100615e-04 1.830585e-03 2.165765e-04 2.393941e-04 2.256592e-03 2.221927e-03 3.115415e-03 
    68.5                4.237236e-04 8.279762e-04 5.846624e-04 6.732154e-04 3.251753e-04 1.870057e-04 1.163823e-03 1.239326e-04 1.382145e-04 1.399713e-03 1.394012e-03 1.971197e-03 
    69.5                1.900140e-04 5.048273e-04 3.110999e-04 3.809040e-04 1.616950e-04 9.577200e-05 6.387861e-04 5.994259e-05 6.763870e-05 7.596777e-04 7.605657e-04 1.088514e-03 
    70.5                5.836107e-05 2.503923e-04 1.243182e-04 1.664323e-04 6.117254e-05 3.678093e-05 2.704052e-04 2.257726e-05 2.575374e-05 3.156001e-04 3.308318e-04 4.708259e-04 
    71.5                1.008334e-05 8.722369e-05 3.297306e-05 5.024875e-05 1.556384e-05 8.897658e-06 7.272645e-05 5.692084e-06 6.518136e-06 8.927970e-05 1.017874e-04 1.417895e-04 
    72.5                3.979746e-07 1.588758e-05 4.092190e-06 7.646091e-06 1.773601e-06 9.871484e-07 1.004285e-05 8.022530e-07 9.121118e-07 1.240507e-05 1.662125e-05 2.202340e-05 
    73.5                9.553895e-12 1.261001e-06 1.624458e-07 4.526700e-07 5.439474e-08 3.488518e-08 4.937725e-07 3.312700e-08 3.839072e-08 6.315266e-07 1.265609e-06 1.475371e-06 
    74.5                0.000000e+00 0.000000e+00 0.000000e+00 0.000000e+00 0.000000e+00 0.000000e+00 0.000000e+00 0.000000e+00 0.000000e+00 0.000000e+00 0.000000e+00 0.000000e+00 
    75.5                0.000000e+00 0.000000e+00 0.000000e+00 0.000000e+00 0.000000e+00 0.000000e+00 0.000000e+00 0.000000e+00 0.000000e+00 0.000000e+00 0.000000e+00 0.000000e+00 
    76.5                0.000000e+00 0.000000e+00 0.000000e+00 0.000000e+00 0.000000e+00 0.000000e+00 0.000000e+00 0.000000e+00 0.000000e+00 0.000000e+00 0.000000e+00 0.000000e+00 
    77.5                0.000000e+00 0.000000e+00 0.000000e+00 0.000000e+00 0.000000e+00 0.000000e+00 0.000000e+00 0.000000e+00 0.000000e+00 0.000000e+00 0.000000e+00 0.000000e+00 
    78.5                0.000000e+00 0.000000e+00 0.000000e+00 0.000000e+00 0.000000e+00 0.000000e+00 0.000000e+00 0.000000e+00 0.000000e+00 0.000000e+00 0.000000e+00 0.000000e+00 
    79.5                0.000000e+00 0.000000e+00 0.000000e+00 0.000000e+00 0.000000e+00 0.000000e+00 0.000000e+00 0.000000e+00 0.000000e+00 0.000000e+00 0.000000e+00 0.000000e+00 


