# 80 rows of flux data
# 12 columns of flux data
# 
# total cross-sectional flux  1.038203e+00 /m^2/yr
#
#                       +x vernal eq.           -x           +y           -y +z eclip. N. -z eclip. S.        Earth          Sun     anti-Sun      rot (x)      rot (y)      rot (z) 
# average speed (km/s)         37.65        37.75        37.71        37.74        46.24        31.51        38.44        27.95        28.07        33.97        33.96        37.71 
# total flux (#/m2/yr)  2.270946e-01 2.450714e-01 2.337558e-01 2.378577e-01 1.147181e-02 6.274747e-01 2.737083e-01 1.673339e-01 1.682827e-01 8.594271e-01 8.596595e-01 7.412113e-01 
# velocity (km/s)
     0.5                0.000000e+00 0.000000e+00 0.000000e+00 0.000000e+00 0.000000e+00 0.000000e+00 0.000000e+00 0.000000e+00 0.000000e+00 0.000000e+00 0.000000e+00 0.000000e+00 
     1.5                0.000000e+00 0.000000e+00 0.000000e+00 0.000000e+00 0.000000e+00 0.000000e+00 0.000000e+00 0.000000e+00 0.000000e+00 0.000000e+00 0.000000e+00 0.000000e+00 
     2.5                9.439069e-05 7.093535e-05 8.229846e-05 8.121147e-05 5.190727e-06 1.514128e-04 1.134427e-04 8.350603e-05 8.367745e-05 2.501611e-04 2.515629e-04 2.580699e-04 
     3.5                4.640793e-04 4.052429e-04 4.402821e-04 4.296922e-04 3.293165e-05 7.264842e-04 5.972858e-04 4.362171e-04 4.493415e-04 1.272236e-03 1.272893e-03 1.365573e-03 
     4.5                9.131142e-04 9.102427e-04 9.146780e-04 9.109711e-04 6.492568e-05 1.589881e-03 1.222350e-03 9.663091e-04 9.811301e-04 2.721375e-03 2.719138e-03 2.865361e-03 
     5.5                1.394982e-03 1.465744e-03 1.427893e-03 1.437536e-03 9.582207e-05 2.680593e-03 1.876154e-03 1.596135e-03 1.608481e-03 4.407257e-03 4.406645e-03 4.497315e-03 
     6.5                1.838525e-03 2.036509e-03 1.923130e-03 1.960836e-03 1.220363e-04 4.045286e-03 2.490080e-03 2.233814e-03 2.239171e-03 6.298798e-03 6.295149e-03 6.094524e-03 
     7.5                2.240967e-03 2.551948e-03 2.368483e-03 2.432109e-03 1.410866e-04 5.523277e-03 3.018162e-03 2.820082e-03 2.816936e-03 8.199487e-03 8.193243e-03 7.533991e-03 
     8.5                2.625883e-03 3.008389e-03 2.765479e-03 2.847149e-03 1.536666e-04 6.980284e-03 3.483478e-03 3.358798e-03 3.352036e-03 1.000446e-02 1.001919e-02 8.832438e-03 
     9.5                2.969515e-03 3.342900e-03 3.112745e-03 3.191642e-03 1.641756e-04 8.396435e-03 3.869102e-03 3.832703e-03 3.829584e-03 1.168577e-02 1.169501e-02 9.909748e-03 
    10.5                3.285472e-03 3.629897e-03 3.424181e-03 3.498639e-03 1.674789e-04 9.805223e-03 4.172774e-03 4.276420e-03 4.278854e-03 1.329857e-02 1.330054e-02 1.086924e-02 
    11.5                3.589629e-03 3.938687e-03 3.717920e-03 3.793106e-03 1.701878e-04 1.146261e-02 4.485222e-03 4.733054e-03 4.738182e-03 1.512122e-02 1.513361e-02 1.181159e-02 
    12.5                3.730628e-03 4.226062e-03 3.922501e-03 4.033207e-03 1.656556e-04 1.272725e-02 4.689029e-03 5.050507e-03 5.057785e-03 1.647962e-02 1.648340e-02 1.249697e-02 
    13.5                3.793156e-03 4.361313e-03 3.988813e-03 4.116487e-03 1.610745e-04 1.383243e-02 4.753410e-03 5.180032e-03 5.188976e-03 1.755376e-02 1.758221e-02 1.276893e-02 
    14.5                3.856718e-03 4.327580e-03 4.028105e-03 4.133576e-03 1.573364e-04 1.445789e-02 4.754720e-03 5.235503e-03 5.246715e-03 1.813146e-02 1.814620e-02 1.283764e-02 
    15.5                3.961557e-03 4.453087e-03 4.130562e-03 4.240544e-03 1.497521e-04 1.564645e-02 4.834190e-03 5.347576e-03 5.358241e-03 1.928493e-02 1.930178e-02 1.318146e-02 
    16.5                3.969185e-03 4.418373e-03 4.147207e-03 4.248604e-03 1.452946e-04 1.596423e-02 4.796358e-03 5.364055e-03 5.373744e-03 1.955424e-02 1.955314e-02 1.318112e-02 
    17.5                3.970484e-03 4.469170e-03 4.149920e-03 4.262765e-03 1.382409e-04 1.644222e-02 4.789007e-03 5.328913e-03 5.339158e-03 1.996372e-02 1.997625e-02 1.323388e-02 
    18.5                4.028116e-03 4.431784e-03 4.178207e-03 4.269805e-03 1.291835e-04 1.695279e-02 4.768670e-03 5.288594e-03 5.298604e-03 2.040415e-02 2.040727e-02 1.327936e-02 
    19.5                4.011955e-03 4.419832e-03 4.159208e-03 4.249638e-03 1.181056e-04 1.709067e-02 4.721340e-03 5.173372e-03 5.183780e-03 2.044614e-02 2.045279e-02 1.322929e-02 
    20.5                3.915456e-03 4.334049e-03 4.079334e-03 4.174494e-03 1.082261e-04 1.691047e-02 4.570347e-03 4.986845e-03 4.995944e-03 2.013774e-02 2.013809e-02 1.296314e-02 
    21.5                3.939163e-03 4.241854e-03 4.051598e-03 4.120499e-03 1.032521e-04 1.704498e-02 4.509313e-03 4.847784e-03 4.856352e-03 2.017576e-02 2.017609e-02 1.284443e-02 
    22.5                3.890754e-03 4.289415e-03 4.053647e-03 4.144068e-03 9.618062e-05 1.733593e-02 4.490614e-03 4.724889e-03 4.732733e-03 2.040245e-02 2.038978e-02 1.286015e-02 
    23.5                3.691990e-03 4.119763e-03 3.828703e-03 3.926573e-03 8.695355e-05 1.642077e-02 4.229755e-03 4.423717e-03 4.430979e-03 1.929023e-02 1.931638e-02 1.222768e-02 
    24.5                3.621521e-03 3.847467e-03 3.710249e-03 3.761244e-03 7.858936e-05 1.574906e-02 4.051004e-03 4.158532e-03 4.165431e-03 1.847420e-02 1.847761e-02 1.173384e-02 
    25.5                3.513538e-03 3.756867e-03 3.617817e-03 3.673528e-03 7.191843e-05 1.539896e-02 3.921444e-03 3.931746e-03 3.938345e-03 1.801875e-02 1.801335e-02 1.143540e-02 
    26.5                3.441318e-03 3.660183e-03 3.525102e-03 3.574616e-03 6.744145e-05 1.483693e-02 3.816216e-03 3.724290e-03 3.730699e-03 1.736903e-02 1.737002e-02 1.115385e-02 
    27.5                3.299036e-03 3.623089e-03 3.414848e-03 3.489268e-03 6.153558e-05 1.426138e-02 3.684097e-03 3.518596e-03 3.523938e-03 1.668910e-02 1.669631e-02 1.085525e-02 
    28.5                3.200212e-03 3.457765e-03 3.295797e-03 3.355221e-03 5.421229e-05 1.365002e-02 3.518625e-03 3.256766e-03 3.261830e-03 1.595551e-02 1.596182e-02 1.045278e-02 
    29.5                2.985660e-03 3.312844e-03 3.116138e-03 3.190128e-03 4.570642e-05 1.292742e-02 3.316931e-03 2.950099e-03 2.954476e-03 1.508132e-02 1.508352e-02 9.899579e-03 
    30.5                2.878088e-03 3.096878e-03 2.942738e-03 2.993410e-03 3.761581e-05 1.233076e-02 3.104391e-03 2.731265e-03 2.734517e-03 1.432149e-02 1.433518e-02 9.354837e-03 
    31.5                2.876910e-03 2.974032e-03 2.916467e-03 2.939622e-03 3.280600e-05 1.195764e-02 3.041429e-03 2.566370e-03 2.569542e-03 1.389683e-02 1.389277e-02 9.198052e-03 
    32.5                2.778713e-03 2.913184e-03 2.787436e-03 2.818859e-03 2.965635e-05 1.123205e-02 2.922707e-03 2.355260e-03 2.358377e-03 1.309551e-02 1.312198e-02 8.875204e-03 
    33.5                2.810704e-03 2.863939e-03 2.774946e-03 2.786782e-03 2.636451e-05 1.085394e-02 2.899682e-03 2.174667e-03 2.177882e-03 1.270334e-02 1.274948e-02 8.824317e-03 
    34.5                2.778618e-03 2.944963e-03 2.803053e-03 2.841955e-03 2.190836e-05 1.093586e-02 2.917358e-03 2.088750e-03 2.091042e-03 1.278980e-02 1.282727e-02 8.930859e-03 
    35.5                2.700840e-03 2.799062e-03 2.709683e-03 2.732954e-03 2.052671e-05 1.007179e-02 2.792641e-03 1.953229e-03 1.955046e-03 1.189502e-02 1.191805e-02 8.592991e-03 
    36.5                2.700279e-03 2.701612e-03 2.746924e-03 2.746355e-03 1.773284e-05 9.824839e-03 2.778747e-03 1.822700e-03 1.824370e-03 1.168251e-02 1.163949e-02 8.555826e-03 
    37.5                2.647659e-03 2.934483e-03 2.787734e-03 2.853479e-03 1.444354e-05 9.931202e-03 2.831622e-03 1.765021e-03 1.766153e-03 1.185315e-02 1.182324e-02 8.816688e-03 
    38.5                2.729846e-03 3.034963e-03 2.821497e-03 2.895995e-03 1.554881e-05 9.703038e-03 2.906765e-03 1.693340e-03 1.694890e-03 1.170296e-02 1.171961e-02 9.019793e-03 
    39.5                2.812453e-03 3.089268e-03 2.907462e-03 2.971768e-03 1.428888e-05 9.625751e-03 2.992007e-03 1.642802e-03 1.644040e-03 1.172239e-02 1.173021e-02 9.251141e-03 
    40.5                2.935765e-03 2.904871e-03 2.963372e-03 2.957283e-03 1.092861e-05 9.438083e-03 2.954371e-03 1.574806e-03 1.576038e-03 1.157294e-02 1.152528e-02 9.235870e-03 
    41.5                3.171675e-03 3.010601e-03 3.164595e-03 3.129947e-03 2.214049e-05 9.466633e-03 3.176033e-03 1.556110e-03 1.558730e-03 1.183900e-02 1.177013e-02 9.793791e-03 
    42.5                3.216016e-03 3.246185e-03 3.216668e-03 3.225209e-03 3.053471e-05 9.208841e-03 3.327078e-03 1.549295e-03 1.553178e-03 1.173166e-02 1.174961e-02 1.013315e-02 
    43.5                3.295617e-03 3.216556e-03 3.219148e-03 3.196546e-03 3.444489e-05 8.768657e-03 3.311496e-03 1.502602e-03 1.507042e-03 1.136706e-02 1.142668e-02 1.014834e-02 
    44.5                3.618555e-03 3.423695e-03 3.513095e-03 3.466784e-03 3.212027e-05 9.142587e-03 3.603531e-03 1.550918e-03 1.554717e-03 1.203769e-02 1.206911e-02 1.101209e-02 
    45.5                3.576839e-03 3.814871e-03 3.579405e-03 3.634640e-03 2.803235e-05 9.180490e-03 3.702636e-03 1.554241e-03 1.557012e-03 1.220747e-02 1.232947e-02 1.145897e-02 
    46.5                3.688937e-03 3.716808e-03 3.635842e-03 3.645613e-03 4.384558e-05 8.917494e-03 3.801156e-03 1.518306e-03 1.523650e-03 1.206266e-02 1.216636e-02 1.153405e-02 
    47.5                3.911355e-03 3.814267e-03 3.876747e-03 3.856745e-03 8.031417e-05 8.827281e-03 4.086477e-03 1.542518e-03 1.551835e-03 1.237576e-02 1.237355e-02 1.214798e-02 
    48.5                4.194130e-03 4.143591e-03 4.094763e-03 4.081288e-03 9.605210e-05 8.778465e-03 4.417826e-03 1.592563e-03 1.603028e-03 1.268842e-02 1.279620e-02 1.297069e-02 
    49.5                4.745761e-03 4.365546e-03 4.527508e-03 4.441952e-03 1.121717e-04 9.060336e-03 4.812155e-03 1.655065e-03 1.666593e-03 1.349841e-02 1.359964e-02 1.420414e-02 
    50.5                5.417654e-03 4.655384e-03 5.161346e-03 4.989718e-03 1.654233e-04 9.377272e-03 5.482887e-03 1.744279e-03 1.759958e-03 1.466043e-02 1.461049e-02 1.587764e-02 
    51.5                6.067869e-03 5.384507e-03 5.882955e-03 5.729529e-03 3.073575e-04 9.605354e-03 6.621001e-03 1.833629e-03 1.862421e-03 1.608677e-02 1.597289e-02 1.812401e-02 
    52.5                6.084359e-03 6.048409e-03 6.206701e-03 6.207629e-03 4.167314e-04 9.335941e-03 7.315596e-03 1.886423e-03 1.925736e-03 1.664035e-02 1.643185e-02 1.929024e-02 
    53.5                5.960317e-03 6.487772e-03 6.243188e-03 6.367733e-03 4.976074e-04 8.847838e-03 7.698283e-03 1.907233e-03 1.954945e-03 1.654664e-02 1.641820e-02 1.968266e-02 
    54.5                5.863821e-03 6.465423e-03 6.108266e-03 6.251750e-03 5.290292e-04 8.315006e-03 7.754977e-03 1.891100e-03 1.942545e-03 1.600693e-02 1.597733e-02 1.938526e-02 
    55.5                5.971298e-03 6.338132e-03 6.003222e-03 6.088666e-03 5.412993e-04 7.900964e-03 7.666013e-03 1.871442e-03 1.922935e-03 1.552585e-02 1.569146e-02 1.915789e-02 
    56.5                5.793659e-03 6.091608e-03 5.908525e-03 5.978650e-03 5.322367e-04 7.493366e-03 7.559656e-03 1.834090e-03 1.884705e-03 1.508161e-02 1.507134e-02 1.866865e-02 
    57.5                5.263368e-03 5.824462e-03 5.522394e-03 5.651592e-03 5.026053e-04 6.785119e-03 7.093111e-03 1.746197e-03 1.793171e-03 1.400250e-02 1.393573e-02 1.748474e-02 
    58.5                4.959732e-03 5.522786e-03 5.168918e-03 5.303955e-03 5.072089e-04 6.104865e-03 6.751885e-03 1.620696e-03 1.666355e-03 1.298234e-02 1.298927e-02 1.645603e-02 
    59.5                4.789545e-03 5.252507e-03 4.935658e-03 5.043001e-03 5.155594e-04 5.602793e-03 6.522865e-03 1.490496e-03 1.534970e-03 1.224888e-02 1.229983e-02 1.571908e-02 
    60.5                4.414646e-03 5.024526e-03 4.624929e-03 4.767267e-03 5.325252e-04 5.023290e-03 6.263840e-03 1.333623e-03 1.378692e-03 1.140316e-02 1.144087e-02 1.478971e-02 
    61.5                3.888914e-03 4.611202e-03 4.146461e-03 4.310229e-03 5.234738e-04 4.247627e-03 5.821957e-03 1.169381e-03 1.213510e-03 1.013162e-02 1.016580e-02 1.332264e-02 
    62.5                3.286477e-03 4.101635e-03 3.572078e-03 3.759221e-03 4.778055e-04 3.488640e-03 5.090562e-03 1.000519e-03 1.040091e-03 8.686128e-03 8.725238e-03 1.155834e-02 
    63.5                2.597469e-03 3.401797e-03 2.941607e-03 3.125407e-03 4.048721e-04 2.734315e-03 4.215902e-03 8.254448e-04 8.584467e-04 7.098344e-03 7.044150e-03 9.470367e-03 
    64.5                2.108869e-03 2.801805e-03 2.368031e-03 2.525309e-03 3.376466e-04 2.149231e-03 3.456230e-03 6.554575e-04 6.826225e-04 5.700591e-03 5.715899e-03 7.702053e-03 
    65.5                1.636649e-03 2.188706e-03 1.886466e-03 2.012539e-03 2.830685e-04 1.598588e-03 2.792816e-03 4.951515e-04 5.179382e-04 4.485234e-03 4.423156e-03 6.067010e-03 
    66.5                1.196995e-03 1.734034e-03 1.428411e-03 1.552652e-03 2.276868e-04 1.148255e-03 2.174350e-03 3.549935e-04 3.731464e-04 3.397792e-03 3.352439e-03 4.643719e-03 
    67.5                7.794413e-04 1.265248e-03 9.875520e-04 1.098769e-03 1.726505e-04 7.372264e-04 1.559735e-03 2.305439e-04 2.442345e-04 2.350542e-03 2.313533e-03 3.244835e-03 
    68.5                4.416674e-04 8.621488e-04 6.089217e-04 7.035236e-04 1.190955e-04 4.162552e-04 1.031212e-03 1.313292e-04 1.410422e-04 1.460614e-03 1.452934e-03 2.054986e-03 
    69.5                1.953812e-04 5.247231e-04 3.209974e-04 3.953358e-04 6.635323e-05 2.009705e-04 5.824145e-04 6.293573e-05 6.874417e-05 7.867638e-04 7.883450e-04 1.127418e-03 
    70.5                5.990904e-05 2.575710e-04 1.272114e-04 1.711606e-04 2.678122e-05 7.392480e-05 2.516019e-04 2.349451e-05 2.608219e-05 3.239530e-04 3.401510e-04 4.836375e-04 
    71.5                1.037164e-05 8.909020e-05 3.366237e-05 5.136797e-05 6.398977e-06 1.859092e-05 6.808837e-05 5.897200e-06 6.587973e-06 9.121844e-05 1.040338e-04 1.449103e-04 
    72.5                4.157858e-07 1.622984e-05 4.184784e-06 7.843088e-06 7.274226e-07 2.097071e-06 9.577786e-06 8.300533e-07 9.274219e-07 1.270868e-05 1.699006e-05 2.253736e-05 
    73.5                1.250183e-11 1.302410e-06 1.656684e-07 4.730649e-07 2.885968e-08 6.316514e-08 4.839253e-07 3.486045e-08 3.975239e-08 6.556725e-07 1.307160e-06 1.526572e-06 
    74.5                0.000000e+00 0.000000e+00 0.000000e+00 0.000000e+00 0.000000e+00 0.000000e+00 0.000000e+00 0.000000e+00 0.000000e+00 0.000000e+00 0.000000e+00 0.000000e+00 
    75.5                0.000000e+00 0.000000e+00 0.000000e+00 0.000000e+00 0.000000e+00 0.000000e+00 0.000000e+00 0.000000e+00 0.000000e+00 0.000000e+00 0.000000e+00 0.000000e+00 
    76.5                0.000000e+00 0.000000e+00 0.000000e+00 0.000000e+00 0.000000e+00 0.000000e+00 0.000000e+00 0.000000e+00 0.000000e+00 0.000000e+00 0.000000e+00 0.000000e+00 
    77.5                0.000000e+00 0.000000e+00 0.000000e+00 0.000000e+00 0.000000e+00 0.000000e+00 0.000000e+00 0.000000e+00 0.000000e+00 0.000000e+00 0.000000e+00 0.000000e+00 
    78.5                0.000000e+00 0.000000e+00 0.000000e+00 0.000000e+00 0.000000e+00 0.000000e+00 0.000000e+00 0.000000e+00 0.000000e+00 0.000000e+00 0.000000e+00 0.000000e+00 
    79.5                0.000000e+00 0.000000e+00 0.000000e+00 0.000000e+00 0.000000e+00 0.000000e+00 0.000000e+00 0.000000e+00 0.000000e+00 0.000000e+00 0.000000e+00 0.000000e+00 


