# 80 rows of flux data
# 12 columns of flux data
# 
# total cross-sectional flux  1.048526e+00 /m^2/yr
#
#                             +x ram      -x wake      +y port -y starboard    +z zenith     -z nadir        Earth          Sun     anti-Sun      rot (x)      rot (y)      rot (z) 
# average speed (km/s)         37.62        37.62        40.42        34.78        31.67        46.40        37.68        27.91        27.91        34.01        34.10        37.32 
# total flux (#/m2/yr)  2.367568e-01 2.365964e-01 1.928295e-01 2.921204e-01 6.189602e-01 2.226641e-04 2.358724e-01 1.709855e-01 1.710078e-01 8.706648e-01 8.519943e-01 7.522570e-01 
# velocity (km/s)
     0.5                0.000000e+00 0.000000e+00 0.000000e+00 0.000000e+00 0.000000e+00 0.000000e+00 0.000000e+00 0.000000e+00 0.000000e+00 0.000000e+00 0.000000e+00 0.000000e+00 
     1.5                0.000000e+00 0.000000e+00 0.000000e+00 0.000000e+00 0.000000e+00 0.000000e+00 0.000000e+00 0.000000e+00 0.000000e+00 0.000000e+00 0.000000e+00 0.000000e+00 
     2.5                8.994960e-05 9.021539e-05 3.411443e-05 1.173370e-04 1.383399e-04 7.861275e-08 8.947585e-05 8.026886e-05 8.032489e-05 2.271718e-04 2.493298e-04 2.607982e-04 
     3.5                4.473634e-04 4.476193e-04 3.842157e-04 4.631730e-04 7.243104e-04 4.584530e-07 4.451248e-04 4.283699e-04 4.283421e-04 1.227362e-03 1.264590e-03 1.367065e-03 
     4.5                9.420646e-04 9.415409e-04 1.020232e-03 8.577664e-04 1.675937e-03 1.069410e-06 9.369445e-04 9.886946e-04 9.887484e-04 2.779681e-03 2.783905e-03 2.954485e-03 
     5.5                1.472038e-03 1.470764e-03 1.654572e-03 1.330591e-03 2.854948e-03 1.651784e-06 1.463039e-03 1.655311e-03 1.655527e-03 4.570405e-03 4.533631e-03 4.656325e-03 
     6.5                1.995954e-03 1.994228e-03 2.222112e-03 1.848544e-03 4.289500e-03 2.166397e-06 1.982984e-03 2.333474e-03 2.333820e-03 6.562958e-03 6.489742e-03 6.331600e-03 
     7.5                2.458392e-03 2.457101e-03 2.640948e-03 2.412733e-03 5.783467e-03 2.536337e-06 2.441632e-03 2.940816e-03 2.941038e-03 8.518832e-03 8.393410e-03 7.829940e-03 
     8.5                2.864813e-03 2.862820e-03 2.962603e-03 2.940289e-03 7.244089e-03 2.898224e-06 2.844668e-03 3.482402e-03 3.483116e-03 1.036357e-02 1.020206e-02 9.135936e-03 
     9.5                3.230883e-03 3.228840e-03 3.207017e-03 3.450909e-03 8.648216e-03 3.003228e-06 3.207268e-03 3.975861e-03 3.976305e-03 1.207281e-02 1.189466e-02 1.030154e-02 
    10.5                3.516614e-03 3.513735e-03 3.334430e-03 3.993509e-03 9.990595e-03 3.109203e-06 3.489966e-03 4.416698e-03 4.417503e-03 1.367587e-02 1.341861e-02 1.127515e-02 
    11.5                3.823995e-03 3.821657e-03 3.457269e-03 4.543812e-03 1.159734e-02 3.185690e-06 3.794228e-03 4.889563e-03 4.890089e-03 1.549562e-02 1.521464e-02 1.228840e-02 
    12.5                4.033093e-03 4.030035e-03 3.513687e-03 4.943826e-03 1.281775e-02 3.183151e-06 4.000596e-03 5.210035e-03 5.210779e-03 1.682948e-02 1.651135e-02 1.297565e-02 
    13.5                4.116879e-03 4.114083e-03 3.471552e-03 5.215418e-03 1.389194e-02 3.081833e-06 4.084370e-03 5.348227e-03 5.349125e-03 1.791838e-02 1.758258e-02 1.328745e-02 
    14.5                4.134410e-03 4.132146e-03 3.345504e-03 5.556357e-03 1.439508e-02 2.963524e-06 4.101803e-03 5.388020e-03 5.388525e-03 1.845032e-02 1.803081e-02 1.348571e-02 
    15.5                4.249560e-03 4.246316e-03 3.273120e-03 5.870328e-03 1.552474e-02 2.894042e-06 4.215767e-03 5.493105e-03 5.494038e-03 1.959685e-02 1.915330e-02 1.385046e-02 
    16.5                4.234661e-03 4.231495e-03 3.159983e-03 6.020924e-03 1.577815e-02 2.743240e-06 4.201041e-03 5.499332e-03 5.500278e-03 1.982566e-02 1.934521e-02 1.385891e-02 
    17.5                4.248540e-03 4.245227e-03 3.081970e-03 6.166353e-03 1.621168e-02 2.677947e-06 4.214747e-03 5.457176e-03 5.457984e-03 2.022066e-02 1.971684e-02 1.393270e-02 
    18.5                4.265928e-03 4.263457e-03 2.976741e-03 6.389898e-03 1.664471e-02 2.473467e-06 4.232473e-03 5.414228e-03 5.414702e-03 2.065312e-02 2.009240e-02 1.405370e-02 
    19.5                4.261265e-03 4.257679e-03 2.854222e-03 6.437027e-03 1.674185e-02 2.293493e-06 4.227521e-03 5.295539e-03 5.296616e-03 2.066689e-02 2.012710e-02 1.397977e-02 
    20.5                4.155594e-03 4.152133e-03 2.746215e-03 6.370983e-03 1.654452e-02 2.132461e-06 4.122626e-03 5.095343e-03 5.095953e-03 2.036026e-02 1.977629e-02 1.367836e-02 
    21.5                4.117983e-03 4.115879e-03 2.565721e-03 6.507680e-03 1.658411e-02 2.003345e-06 4.086580e-03 4.937863e-03 4.938504e-03 2.034610e-02 1.974487e-02 1.358681e-02 
    22.5                4.133472e-03 4.130045e-03 2.529166e-03 6.509064e-03 1.688400e-02 1.884821e-06 4.102363e-03 4.816133e-03 4.816871e-03 2.056074e-02 1.998196e-02 1.358140e-02 
    23.5                3.904462e-03 3.901205e-03 2.374403e-03 6.186638e-03 1.598155e-02 1.718539e-06 3.875118e-03 4.505407e-03 4.506160e-03 1.947117e-02 1.888367e-02 1.284579e-02 
    24.5                3.758617e-03 3.756298e-03 2.207253e-03 6.027822e-03 1.527317e-02 1.561682e-06 3.730787e-03 4.235069e-03 4.235495e-03 1.861733e-02 1.803906e-02 1.235873e-02 
    25.5                3.652187e-03 3.648882e-03 2.086498e-03 5.860243e-03 1.492829e-02 1.416012e-06 3.624607e-03 3.993186e-03 3.993753e-03 1.813569e-02 1.758050e-02 1.196572e-02 
    26.5                3.574642e-03 3.572188e-03 1.993009e-03 5.774757e-03 1.433306e-02 1.341268e-06 3.548279e-03 3.790440e-03 3.791131e-03 1.748575e-02 1.692416e-02 1.170029e-02 
    27.5                3.477215e-03 3.475101e-03 1.926646e-03 5.517711e-03 1.379596e-02 1.220088e-06 3.451632e-03 3.583738e-03 3.583978e-03 1.681147e-02 1.628842e-02 1.129246e-02 
    28.5                3.337479e-03 3.334285e-03 1.811957e-03 5.359863e-03 1.316666e-02 1.068808e-06 3.313827e-03 3.307745e-03 3.308288e-03 1.606405e-02 1.552723e-02 1.085916e-02 
    29.5                3.166330e-03 3.164488e-03 1.708284e-03 5.005441e-03 1.249851e-02 9.143120e-07 3.144533e-03 2.999742e-03 3.000258e-03 1.518026e-02 1.471425e-02 1.023416e-02 
    30.5                2.984801e-03 2.982798e-03 1.543326e-03 4.876468e-03 1.185931e-02 7.962547e-07 2.964841e-03 2.774897e-03 2.775096e-03 1.442244e-02 1.392068e-02 9.716038e-03 
    31.5                2.935775e-03 2.933963e-03 1.446126e-03 4.791769e-03 1.146468e-02 6.568012e-07 2.916708e-03 2.599100e-03 2.599514e-03 1.394930e-02 1.346734e-02 9.492551e-03 
    32.5                2.821306e-03 2.817981e-03 1.395906e-03 4.509188e-03 1.078220e-02 5.888854e-07 2.803541e-03 2.379708e-03 2.380082e-03 1.314420e-02 1.271840e-02 9.058625e-03 
    33.5                2.816925e-03 2.814896e-03 1.394704e-03 4.545283e-03 1.036986e-02 5.448995e-07 2.800766e-03 2.194962e-03 2.195143e-03 1.278684e-02 1.232826e-02 9.076636e-03 
    34.5                2.855935e-03 2.854895e-03 1.385135e-03 4.544856e-03 1.045634e-02 4.420405e-07 2.840147e-03 2.109725e-03 2.110040e-03 1.286139e-02 1.242120e-02 9.129615e-03 
    35.5                2.735751e-03 2.732571e-03 1.340937e-03 4.262511e-03 9.629582e-03 3.767956e-07 2.720788e-03 1.967747e-03 1.968019e-03 1.193775e-02 1.155196e-02 8.687009e-03 
    36.5                2.734254e-03 2.732144e-03 1.326433e-03 4.324143e-03 9.340680e-03 3.443020e-07 2.720955e-03 1.840910e-03 1.841205e-03 1.169082e-02 1.128323e-02 8.725142e-03 
    37.5                2.799127e-03 2.797599e-03 1.369880e-03 4.382787e-03 9.451426e-03 3.569167e-07 2.785696e-03 1.778523e-03 1.778756e-03 1.188640e-02 1.145797e-02 8.907930e-03 
    38.5                2.868997e-03 2.867469e-03 1.343980e-03 4.561181e-03 9.136332e-03 3.203951e-07 2.857455e-03 1.702468e-03 1.702724e-03 1.172652e-02 1.127721e-02 9.135377e-03 
    39.5                2.959040e-03 2.955376e-03 1.512940e-03 4.393961e-03 9.175200e-03 2.897793e-07 2.947950e-03 1.648988e-03 1.649215e-03 1.173081e-02 1.140455e-02 9.283010e-03 
    40.5                2.929171e-03 2.928820e-03 1.503988e-03 4.444205e-03 8.951798e-03 2.810236e-07 2.918229e-03 1.579116e-03 1.579515e-03 1.157124e-02 1.117573e-02 9.268128e-03 
    41.5                3.099586e-03 3.097284e-03 1.527834e-03 4.696655e-03 8.898381e-03 3.889103e-07 3.089437e-03 1.555354e-03 1.555490e-03 1.174913e-02 1.136736e-02 9.747224e-03 
    42.5                3.232403e-03 3.231928e-03 1.818008e-03 4.479427e-03 8.794998e-03 6.762865e-07 3.222409e-03 1.551445e-03 1.551749e-03 1.170969e-02 1.146935e-02 1.002427e-02 
    43.5                3.204743e-03 3.202461e-03 1.848104e-03 4.619046e-03 8.291492e-03 6.861105e-07 3.196015e-03 1.509797e-03 1.509671e-03 1.144712e-02 1.104997e-02 1.010734e-02 
    44.5                3.526289e-03 3.525839e-03 2.002506e-03 5.064016e-03 8.576630e-03 6.665884e-07 3.517852e-03 1.561368e-03 1.561691e-03 1.211488e-02 1.171627e-02 1.108421e-02 
    45.5                3.625351e-03 3.623038e-03 2.214632e-03 4.909684e-03 8.739248e-03 6.838793e-07 3.616890e-03 1.557000e-03 1.557136e-03 1.226690e-02 1.197576e-02 1.128818e-02 
    46.5                3.639393e-03 3.641128e-03 2.165856e-03 4.915230e-03 8.450106e-03 1.047452e-06 3.632144e-03 1.509311e-03 1.509527e-03 1.201374e-02 1.179373e-02 1.127699e-02 
    47.5                3.827329e-03 3.821739e-03 2.420042e-03 5.055633e-03 8.367063e-03 1.282253e-06 3.819735e-03 1.532077e-03 1.532376e-03 1.231053e-02 1.204912e-02 1.187626e-02 
    48.5                4.113945e-03 4.114306e-03 2.659256e-03 5.427894e-03 8.238227e-03 1.972181e-06 4.107408e-03 1.597355e-03 1.597253e-03 1.272258e-02 1.243670e-02 1.280785e-02 
    49.5                4.482174e-03 4.483874e-03 3.097724e-03 5.828468e-03 8.523420e-03 2.620159e-06 4.477833e-03 1.662864e-03 1.662926e-03 1.362375e-02 1.322158e-02 1.405051e-02 
    50.5                4.956025e-03 4.952625e-03 3.316474e-03 6.307258e-03 8.716100e-03 4.129837e-06 4.951349e-03 1.731713e-03 1.731967e-03 1.437535e-02 1.415592e-02 1.532659e-02 
    51.5                5.643025e-03 5.639671e-03 4.111982e-03 6.605601e-03 9.075084e-03 6.568611e-06 5.638423e-03 1.813510e-03 1.813851e-03 1.555412e-02 1.558453e-02 1.727216e-02 
    52.5                6.022938e-03 6.024197e-03 5.272332e-03 6.269801e-03 9.172293e-03 8.958887e-06 6.021068e-03 1.880054e-03 1.880140e-03 1.631452e-02 1.633571e-02 1.852889e-02 
    53.5                6.155476e-03 6.152598e-03 5.823964e-03 6.054697e-03 8.825597e-03 9.980228e-06 6.155873e-03 1.919684e-03 1.919749e-03 1.633889e-02 1.635857e-02 1.898717e-02 
    54.5                6.168896e-03 6.160382e-03 6.233204e-03 5.619073e-03 8.531539e-03 1.044341e-05 6.170554e-03 1.914229e-03 1.914938e-03 1.609953e-02 1.618730e-02 1.898886e-02 
    55.5                6.039671e-03 6.035215e-03 6.431724e-03 5.566647e-03 8.147980e-03 1.038580e-05 6.041664e-03 1.889225e-03 1.889167e-03 1.594768e-02 1.573575e-02 1.889099e-02 
    56.5                5.968434e-03 5.964883e-03 6.408131e-03 5.278694e-03 7.814247e-03 1.007249e-05 5.970401e-03 1.859694e-03 1.859823e-03 1.544430e-02 1.537658e-02 1.853739e-02 
    57.5                5.575378e-03 5.569458e-03 6.203408e-03 4.709535e-03 7.212050e-03 1.000749e-05 5.578010e-03 1.793275e-03 1.793356e-03 1.436913e-02 1.433580e-02 1.732620e-02 
    58.5                5.238602e-03 5.236519e-03 5.830471e-03 4.456146e-03 6.475654e-03 9.684488e-06 5.242757e-03 1.674422e-03 1.674462e-03 1.331534e-02 1.328902e-02 1.628828e-02 
    59.5                4.991485e-03 4.988675e-03 5.629210e-03 4.106157e-03 5.966768e-03 1.018559e-05 4.994542e-03 1.541904e-03 1.542105e-03 1.249806e-02 1.253343e-02 1.546282e-02 
    60.5                4.673359e-03 4.665408e-03 5.528595e-03 3.566858e-03 5.513233e-03 1.025737e-05 4.677272e-03 1.383429e-03 1.383722e-03 1.162777e-02 1.170420e-02 1.446717e-02 
    61.5                4.259073e-03 4.258559e-03 5.248513e-03 3.003556e-03 4.804969e-03 1.001752e-05 4.262925e-03 1.224120e-03 1.224114e-03 1.042579e-02 1.055765e-02 1.316684e-02 
    62.5                3.718073e-03 3.715811e-03 5.073174e-03 2.408872e-03 4.162108e-03 8.955414e-06 3.722890e-03 1.062152e-03 1.062207e-03 9.300847e-03 9.212157e-03 1.170395e-02 
    63.5                3.062346e-03 3.058190e-03 4.298969e-03 1.896460e-03 3.322425e-03 7.598405e-06 3.067054e-03 8.878549e-04 8.879653e-04 7.622902e-03 7.519896e-03 9.666295e-03 
    64.5                2.491607e-03 2.488449e-03 3.573309e-03 1.471522e-03 2.663379e-03 6.500088e-06 2.495811e-03 7.135148e-04 7.135686e-04 6.176489e-03 6.102950e-03 7.867878e-03 
    65.5                1.967295e-03 1.966674e-03 2.892599e-03 1.076146e-03 2.056345e-03 5.188433e-06 1.970915e-03 5.452262e-04 5.452569e-04 4.828981e-03 4.797425e-03 6.205750e-03 
    66.5                1.530480e-03 1.527416e-03 2.420420e-03 7.244136e-04 1.573510e-03 4.196805e-06 1.533858e-03 4.036005e-04 4.036066e-04 3.783930e-03 3.721068e-03 4.867154e-03 
    67.5                1.074908e-03 1.071535e-03 1.841972e-03 4.025709e-04 1.102235e-03 3.203614e-06 1.077591e-03 2.712537e-04 2.713108e-04 2.680285e-03 2.615187e-03 3.447972e-03 
    68.5                6.979293e-04 6.964243e-04 1.314548e-03 1.960148e-04 7.057356e-04 2.033693e-06 7.000350e-04 1.655030e-04 1.654815e-04 1.776207e-03 1.696178e-03 2.282183e-03 
    69.5                4.052165e-04 4.043782e-04 8.572036e-04 7.099592e-05 4.076831e-04 1.069543e-06 4.070003e-04 8.745586e-05 8.747344e-05 1.071734e-03 9.851561e-04 1.363821e-03 
    70.5                1.903485e-04 1.902021e-04 4.540133e-04 1.628892e-05 1.934810e-04 3.879248e-07 1.914168e-04 3.708448e-05 3.708091e-05 5.317613e-04 4.644045e-04 6.669817e-04 
    71.5                5.960811e-05 5.966966e-05 1.715522e-04 1.640842e-06 6.620180e-05 8.012438e-08 6.013728e-05 1.044563e-05 1.044490e-05 1.909680e-04 1.489684e-04 2.287029e-04 
    72.5                9.453596e-06 9.436951e-06 3.068191e-05 4.705697e-08 1.127359e-05 7.017261e-09 9.574916e-06 1.598560e-06 1.600444e-06 3.323869e-05 2.406092e-05 3.897436e-05 
    73.5                4.924631e-07 4.954207e-07 2.333184e-06 0.000000e+00 8.489888e-07 0.000000e+00 5.033650e-07 6.730193e-08 6.725726e-08 2.491259e-06 1.403208e-06 2.634433e-06 
    74.5                0.000000e+00 0.000000e+00 0.000000e+00 0.000000e+00 0.000000e+00 0.000000e+00 0.000000e+00 0.000000e+00 0.000000e+00 0.000000e+00 0.000000e+00 0.000000e+00 
    75.5                0.000000e+00 0.000000e+00 0.000000e+00 0.000000e+00 0.000000e+00 0.000000e+00 0.000000e+00 0.000000e+00 0.000000e+00 0.000000e+00 0.000000e+00 0.000000e+00 
    76.5                0.000000e+00 0.000000e+00 0.000000e+00 0.000000e+00 0.000000e+00 0.000000e+00 0.000000e+00 0.000000e+00 0.000000e+00 0.000000e+00 0.000000e+00 0.000000e+00 
    77.5                0.000000e+00 0.000000e+00 0.000000e+00 0.000000e+00 0.000000e+00 0.000000e+00 0.000000e+00 0.000000e+00 0.000000e+00 0.000000e+00 0.000000e+00 0.000000e+00 
    78.5                0.000000e+00 0.000000e+00 0.000000e+00 0.000000e+00 0.000000e+00 0.000000e+00 0.000000e+00 0.000000e+00 0.000000e+00 0.000000e+00 0.000000e+00 0.000000e+00 
    79.5                0.000000e+00 0.000000e+00 0.000000e+00 0.000000e+00 0.000000e+00 0.000000e+00 0.000000e+00 0.000000e+00 0.000000e+00 0.000000e+00 0.000000e+00 0.000000e+00 


