# 80 rows of flux data
# 12 columns of flux data
# 
# total cross-sectional flux  2.220991e+00 /m^2/yr
#
#                             +x ram      -x wake      +y port -y starboard    +z zenith     -z nadir        Earth          Sun     anti-Sun      rot (x)      rot (y)      rot (z) 
# average speed (km/s)         23.86        24.69        18.59        25.12        22.92        24.24        24.81        24.64        24.66        23.56        23.96        24.20 
# total flux (#/m2/yr)  6.327381e-01 7.419333e-01 1.975974e-01 1.027971e+00 6.812278e-01 1.179326e-03 1.175301e+00 9.652366e-01 9.764345e-01 1.484357e+00 1.668116e+00 2.045974e+00 
# velocity (km/s)
     0.5                0.000000e+00 0.000000e+00 0.000000e+00 0.000000e+00 0.000000e+00 0.000000e+00 0.000000e+00 0.000000e+00 0.000000e+00 0.000000e+00 0.000000e+00 0.000000e+00 
     1.5                0.000000e+00 0.000000e+00 0.000000e+00 0.000000e+00 0.000000e+00 0.000000e+00 0.000000e+00 0.000000e+00 0.000000e+00 0.000000e+00 0.000000e+00 0.000000e+00 
     2.5                5.554571e-06 0.000000e+00 1.149822e-06 1.020894e-06 2.372855e-06 4.968736e-10 1.616134e-06 4.672529e-07 1.299872e-06 3.484185e-06 6.154142e-06 6.155272e-06 
     3.5                1.386298e-04 4.000725e-06 4.055370e-05 7.192516e-05 7.854750e-05 7.870600e-08 9.096627e-05 3.497816e-05 5.607733e-05 1.483344e-04 1.755397e-04 2.005758e-04 
     4.5                5.899523e-04 1.498050e-04 2.131440e-04 4.253618e-04 4.318530e-04 4.988148e-07 5.270265e-04 2.213776e-04 2.923525e-04 8.373472e-04 9.308823e-04 1.082571e-03 
     5.5                1.549037e-03 6.574895e-04 7.195902e-04 1.404401e-03 1.438212e-03 1.676271e-06 1.738323e-03 8.456120e-04 9.817040e-04 2.804911e-03 2.886943e-03 3.403016e-03 
     6.5                2.876107e-03 2.060846e-03 1.625230e-03 3.036811e-03 3.202863e-03 3.758397e-06 3.783230e-03 2.073598e-03 2.233700e-03 6.201606e-03 6.446901e-03 7.543205e-03 
     7.5                5.063127e-03 3.757143e-03 2.909894e-03 5.281180e-03 5.788984e-03 6.751660e-06 6.625536e-03 3.935898e-03 4.058487e-03 1.102708e-02 1.156582e-02 1.336261e-02 
     8.5                7.516032e-03 6.285172e-03 4.540376e-03 8.549463e-03 9.086105e-03 1.078559e-05 1.066021e-02 6.552186e-03 6.584340e-03 1.750266e-02 1.810065e-02 2.111826e-02 
     9.5                9.529271e-03 9.594689e-03 6.404361e-03 1.188947e-02 1.265686e-02 1.577800e-05 1.481749e-02 9.708500e-03 9.702568e-03 2.447277e-02 2.516130e-02 2.939537e-02 
    10.5                1.155927e-02 1.283229e-02 8.206898e-03 1.446778e-02 1.622762e-02 1.932071e-05 1.821050e-02 1.315234e-02 1.324351e-02 3.073212e-02 3.214766e-02 3.697258e-02 
    11.5                1.327001e-02 1.504976e-02 9.589152e-03 1.701450e-02 1.928488e-02 2.217310e-05 2.142517e-02 1.657420e-02 1.673601e-02 3.621979e-02 3.767058e-02 4.315686e-02 
    12.5                1.455466e-02 1.725396e-02 1.042848e-02 1.913456e-02 2.138227e-02 2.542560e-05 2.396343e-02 1.967643e-02 1.984475e-02 4.021290e-02 4.214783e-02 4.822249e-02 
    13.5                1.655316e-02 1.856073e-02 1.098635e-02 2.144641e-02 2.312352e-02 2.842266e-05 2.662774e-02 2.267191e-02 2.283985e-02 4.383030e-02 4.625853e-02 5.306326e-02 
    14.5                1.830521e-02 2.027824e-02 1.134709e-02 2.442464e-02 2.462492e-02 3.211292e-05 2.991256e-02 2.586440e-02 2.606427e-02 4.762327e-02 5.034507e-02 5.841508e-02 
    15.5                1.992427e-02 2.207599e-02 1.134391e-02 2.746733e-02 2.562383e-02 3.606562e-05 3.314368e-02 2.892835e-02 2.915368e-02 5.077464e-02 5.403756e-02 6.349396e-02 
    16.5                2.137902e-02 2.399860e-02 1.126289e-02 3.035406e-02 2.660231e-02 3.937529e-05 3.623199e-02 3.178364e-02 3.203156e-02 5.369189e-02 5.768446e-02 6.834845e-02 
    17.5                2.278869e-02 2.539167e-02 1.094153e-02 3.297028e-02 2.710985e-02 4.247890e-05 3.894179e-02 3.436008e-02 3.462554e-02 5.584881e-02 6.047773e-02 7.236373e-02 
    18.5                2.381093e-02 2.668617e-02 1.047462e-02 3.548780e-02 2.734719e-02 4.525167e-05 4.149346e-02 3.663440e-02 3.691510e-02 5.759245e-02 6.269281e-02 7.580455e-02 
    19.5                2.457982e-02 2.790948e-02 1.008526e-02 3.739810e-02 2.754038e-02 4.746732e-05 4.342806e-02 3.845455e-02 3.875019e-02 5.888658e-02 6.460403e-02 7.858139e-02 
    20.5                2.529316e-02 2.855288e-02 9.439347e-03 3.900573e-02 2.739649e-02 4.897223e-05 4.496890e-02 3.970683e-02 4.002594e-02 5.945231e-02 6.572698e-02 8.041109e-02 
    21.5                2.633410e-02 2.904217e-02 8.793242e-03 4.083199e-02 2.735893e-02 5.016797e-05 4.677610e-02 4.104649e-02 4.140030e-02 6.025592e-02 6.704767e-02 8.254905e-02 
    22.5                2.699993e-02 2.998766e-02 8.324738e-03 4.277160e-02 2.761841e-02 5.186647e-05 4.873494e-02 4.246031e-02 4.284565e-02 6.153674e-02 6.869849e-02 8.498424e-02 
    23.5                2.726819e-02 3.079690e-02 7.656899e-03 4.411327e-02 2.736799e-02 5.303252e-05 4.999955e-02 4.325923e-02 4.367687e-02 6.179591e-02 6.949959e-02 8.636824e-02 
    24.5                2.741686e-02 3.097771e-02 6.921106e-03 4.492735e-02 2.694368e-02 5.304114e-05 5.069181e-02 4.346248e-02 4.391383e-02 6.142912e-02 6.954053e-02 8.669689e-02 
    25.5                2.730634e-02 3.104353e-02 6.117337e-03 4.554091e-02 2.639382e-02 5.255162e-05 5.115793e-02 4.335646e-02 4.384095e-02 6.073606e-02 6.917311e-02 8.652727e-02 
    26.5                2.661922e-02 3.091670e-02 5.362061e-03 4.543521e-02 2.561206e-02 5.126844e-05 5.085565e-02 4.266441e-02 4.316867e-02 5.934137e-02 6.796416e-02 8.522739e-02 
    27.5                2.594808e-02 3.028184e-02 4.644409e-03 4.466316e-02 2.458795e-02 4.955120e-05 4.984256e-02 4.149179e-02 4.200776e-02 5.727889e-02 6.616412e-02 8.304942e-02 
    28.5                2.507305e-02 2.930908e-02 3.973482e-03 4.371805e-02 2.355730e-02 4.729967e-05 4.865596e-02 4.002463e-02 4.054895e-02 5.511988e-02 6.386457e-02 8.033623e-02 
    29.5                2.391360e-02 2.840434e-02 3.365807e-03 4.235939e-02 2.236718e-02 4.524489e-05 4.702868e-02 3.831885e-02 3.884413e-02 5.258735e-02 6.127456e-02 7.718190e-02 
    30.5                2.261424e-02 2.710187e-02 2.761383e-03 4.055197e-02 2.103260e-02 4.237187e-05 4.492486e-02 3.621717e-02 3.673596e-02 4.959235e-02 5.810023e-02 7.325644e-02 
    31.5                2.108960e-02 2.565850e-02 2.226547e-03 3.838932e-02 1.958403e-02 3.923867e-05 4.244893e-02 3.384712e-02 3.435149e-02 4.629435e-02 5.452271e-02 6.881819e-02 
    32.5                1.933438e-02 2.399526e-02 1.765911e-03 3.580269e-02 1.801812e-02 3.581182e-05 3.953031e-02 3.115653e-02 3.163781e-02 4.265437e-02 5.045845e-02 6.374654e-02 
    33.5                1.736304e-02 2.214817e-02 1.393604e-03 3.275428e-02 1.630450e-02 3.233568e-05 3.612341e-02 2.818194e-02 2.862732e-02 3.864426e-02 4.594077e-02 5.806132e-02 
    34.5                1.539276e-02 1.999962e-02 1.079355e-03 2.942558e-02 1.451440e-02 2.869406e-05 3.242359e-02 2.504024e-02 2.544461e-02 3.442283e-02 4.110082e-02 5.196156e-02 
    35.5                1.343166e-02 1.781519e-02 8.178562e-04 2.603776e-02 1.273476e-02 2.512874e-05 2.866704e-02 2.191620e-02 2.227788e-02 3.021847e-02 3.624047e-02 4.583254e-02 
    36.5                1.152886e-02 1.560382e-02 5.975275e-04 2.268720e-02 1.100600e-02 2.159993e-05 2.496155e-02 1.886378e-02 1.917920e-02 2.612487e-02 3.143777e-02 3.978487e-02 
    37.5                9.685411e-03 1.348904e-02 4.286196e-04 1.940953e-02 9.352972e-03 1.833078e-05 2.134415e-02 1.595156e-02 1.622371e-02 2.220229e-02 2.682312e-02 3.395421e-02 
    38.5                7.871329e-03 1.141548e-02 2.988991e-04 1.619926e-02 7.760378e-03 1.516751e-05 1.780734e-02 1.315278e-02 1.337781e-02 1.842232e-02 2.231039e-02 2.826033e-02 
    39.5                6.117200e-03 9.430544e-03 2.021701e-04 1.305226e-02 6.222813e-03 1.218511e-05 1.434497e-02 1.048206e-02 1.066053e-02 1.477115e-02 1.796518e-02 2.275392e-02 
    40.5                4.520392e-03 7.474521e-03 1.303765e-04 1.004863e-02 4.771963e-03 9.395280e-06 1.104281e-02 7.987009e-03 8.121371e-03 1.132437e-02 1.384355e-02 1.752574e-02 
    41.5                3.188399e-03 5.654765e-03 8.025079e-05 7.366998e-03 3.487313e-03 6.944550e-06 8.095798e-03 5.806532e-03 5.901779e-03 8.273038e-03 1.018803e-02 1.288142e-02 
    42.5                2.127681e-03 4.062304e-03 4.706521e-05 5.147588e-03 2.430424e-03 4.867174e-06 5.657409e-03 4.014737e-03 4.079463e-03 5.763433e-03 7.125423e-03 9.006076e-03 
    43.5                1.273631e-03 2.794375e-03 2.602528e-05 3.370273e-03 1.588064e-03 3.200360e-06 3.704808e-03 2.603553e-03 2.643813e-03 3.764379e-03 4.677553e-03 5.907129e-03 
    44.5                6.621828e-04 1.774187e-03 1.345826e-05 1.981735e-03 9.325688e-04 1.943595e-06 2.179179e-03 1.529256e-03 1.550335e-03 2.209785e-03 2.790514e-03 3.509008e-03 
    45.5                2.744332e-04 9.907015e-04 6.128153e-06 1.003393e-03 4.717126e-04 1.029758e-06 1.103847e-03 7.769817e-04 7.859222e-04 1.117471e-03 1.441646e-03 1.802266e-03 
    46.5                8.045855e-05 4.627164e-04 2.412560e-06 4.052147e-04 1.904326e-04 4.594934e-07 4.460246e-04 3.216533e-04 3.243594e-04 4.510917e-04 6.118866e-04 7.543073e-04 
    47.5                1.571638e-05 1.594318e-04 7.583895e-07 1.189274e-04 5.589860e-05 1.586234e-07 1.309939e-04 9.909356e-05 9.920834e-05 1.324412e-04 1.942299e-04 2.345772e-04 
    48.5                1.412595e-06 3.848350e-05 1.669654e-07 2.389582e-05 1.123374e-05 3.873344e-08 2.634415e-05 2.132693e-05 2.120981e-05 2.662752e-05 4.336464e-05 5.101161e-05 
    49.5                1.245264e-08 5.355253e-06 2.357947e-08 2.553059e-06 1.202050e-06 5.728325e-09 2.820054e-06 2.632589e-06 2.598000e-06 2.852764e-06 5.650348e-06 6.357414e-06 
    50.5                0.000000e+00 1.558303e-07 7.885630e-10 4.790558e-08 2.262344e-08 2.066947e-10 5.326098e-08 6.889001e-08 6.646594e-08 5.399745e-08 1.585429e-07 1.672508e-07 
    51.5                0.000000e+00 0.000000e+00 0.000000e+00 0.000000e+00 0.000000e+00 0.000000e+00 0.000000e+00 0.000000e+00 0.000000e+00 0.000000e+00 0.000000e+00 0.000000e+00 
    52.5                0.000000e+00 0.000000e+00 0.000000e+00 0.000000e+00 0.000000e+00 0.000000e+00 0.000000e+00 0.000000e+00 0.000000e+00 0.000000e+00 0.000000e+00 0.000000e+00 
    53.5                0.000000e+00 0.000000e+00 0.000000e+00 0.000000e+00 0.000000e+00 0.000000e+00 0.000000e+00 0.000000e+00 0.000000e+00 0.000000e+00 0.000000e+00 0.000000e+00 
    54.5                0.000000e+00 0.000000e+00 0.000000e+00 0.000000e+00 0.000000e+00 0.000000e+00 0.000000e+00 0.000000e+00 0.000000e+00 0.000000e+00 0.000000e+00 0.000000e+00 
    55.5                0.000000e+00 0.000000e+00 0.000000e+00 0.000000e+00 0.000000e+00 0.000000e+00 0.000000e+00 0.000000e+00 0.000000e+00 0.000000e+00 0.000000e+00 0.000000e+00 
    56.5                0.000000e+00 0.000000e+00 0.000000e+00 0.000000e+00 0.000000e+00 0.000000e+00 0.000000e+00 0.000000e+00 0.000000e+00 0.000000e+00 0.000000e+00 0.000000e+00 
    57.5                0.000000e+00 0.000000e+00 0.000000e+00 0.000000e+00 0.000000e+00 0.000000e+00 0.000000e+00 0.000000e+00 0.000000e+00 0.000000e+00 0.000000e+00 0.000000e+00 
    58.5                0.000000e+00 0.000000e+00 0.000000e+00 0.000000e+00 0.000000e+00 0.000000e+00 0.000000e+00 0.000000e+00 0.000000e+00 0.000000e+00 0.000000e+00 0.000000e+00 
    59.5                0.000000e+00 0.000000e+00 0.000000e+00 0.000000e+00 0.000000e+00 0.000000e+00 0.000000e+00 0.000000e+00 0.000000e+00 0.000000e+00 0.000000e+00 0.000000e+00 
    60.5                0.000000e+00 0.000000e+00 0.000000e+00 0.000000e+00 0.000000e+00 0.000000e+00 0.000000e+00 0.000000e+00 0.000000e+00 0.000000e+00 0.000000e+00 0.000000e+00 
    61.5                0.000000e+00 0.000000e+00 0.000000e+00 0.000000e+00 0.000000e+00 0.000000e+00 0.000000e+00 0.000000e+00 0.000000e+00 0.000000e+00 0.000000e+00 0.000000e+00 
    62.5                0.000000e+00 0.000000e+00 0.000000e+00 0.000000e+00 0.000000e+00 0.000000e+00 0.000000e+00 0.000000e+00 0.000000e+00 0.000000e+00 0.000000e+00 0.000000e+00 
    63.5                0.000000e+00 0.000000e+00 0.000000e+00 0.000000e+00 0.000000e+00 0.000000e+00 0.000000e+00 0.000000e+00 0.000000e+00 0.000000e+00 0.000000e+00 0.000000e+00 
    64.5                0.000000e+00 0.000000e+00 0.000000e+00 0.000000e+00 0.000000e+00 0.000000e+00 0.000000e+00 0.000000e+00 0.000000e+00 0.000000e+00 0.000000e+00 0.000000e+00 
    65.5                0.000000e+00 0.000000e+00 0.000000e+00 0.000000e+00 0.000000e+00 0.000000e+00 0.000000e+00 0.000000e+00 0.000000e+00 0.000000e+00 0.000000e+00 0.000000e+00 
    66.5                0.000000e+00 0.000000e+00 0.000000e+00 0.000000e+00 0.000000e+00 0.000000e+00 0.000000e+00 0.000000e+00 0.000000e+00 0.000000e+00 0.000000e+00 0.000000e+00 
    67.5                0.000000e+00 0.000000e+00 0.000000e+00 0.000000e+00 0.000000e+00 0.000000e+00 0.000000e+00 0.000000e+00 0.000000e+00 0.000000e+00 0.000000e+00 0.000000e+00 
    68.5                0.000000e+00 0.000000e+00 0.000000e+00 0.000000e+00 0.000000e+00 0.000000e+00 0.000000e+00 0.000000e+00 0.000000e+00 0.000000e+00 0.000000e+00 0.000000e+00 
    69.5                0.000000e+00 0.000000e+00 0.000000e+00 0.000000e+00 0.000000e+00 0.000000e+00 0.000000e+00 0.000000e+00 0.000000e+00 0.000000e+00 0.000000e+00 0.000000e+00 
    70.5                0.000000e+00 0.000000e+00 0.000000e+00 0.000000e+00 0.000000e+00 0.000000e+00 0.000000e+00 0.000000e+00 0.000000e+00 0.000000e+00 0.000000e+00 0.000000e+00 
    71.5                0.000000e+00 0.000000e+00 0.000000e+00 0.000000e+00 0.000000e+00 0.000000e+00 0.000000e+00 0.000000e+00 0.000000e+00 0.000000e+00 0.000000e+00 0.000000e+00 
    72.5                0.000000e+00 0.000000e+00 0.000000e+00 0.000000e+00 0.000000e+00 0.000000e+00 0.000000e+00 0.000000e+00 0.000000e+00 0.000000e+00 0.000000e+00 0.000000e+00 
    73.5                0.000000e+00 0.000000e+00 0.000000e+00 0.000000e+00 0.000000e+00 0.000000e+00 0.000000e+00 0.000000e+00 0.000000e+00 0.000000e+00 0.000000e+00 0.000000e+00 
    74.5                0.000000e+00 0.000000e+00 0.000000e+00 0.000000e+00 0.000000e+00 0.000000e+00 0.000000e+00 0.000000e+00 0.000000e+00 0.000000e+00 0.000000e+00 0.000000e+00 
    75.5                0.000000e+00 0.000000e+00 0.000000e+00 0.000000e+00 0.000000e+00 0.000000e+00 0.000000e+00 0.000000e+00 0.000000e+00 0.000000e+00 0.000000e+00 0.000000e+00 
    76.5                0.000000e+00 0.000000e+00 0.000000e+00 0.000000e+00 0.000000e+00 0.000000e+00 0.000000e+00 0.000000e+00 0.000000e+00 0.000000e+00 0.000000e+00 0.000000e+00 
    77.5                0.000000e+00 0.000000e+00 0.000000e+00 0.000000e+00 0.000000e+00 0.000000e+00 0.000000e+00 0.000000e+00 0.000000e+00 0.000000e+00 0.000000e+00 0.000000e+00 
    78.5                0.000000e+00 0.000000e+00 0.000000e+00 0.000000e+00 0.000000e+00 0.000000e+00 0.000000e+00 0.000000e+00 0.000000e+00 0.000000e+00 0.000000e+00 0.000000e+00 
    79.5                0.000000e+00 0.000000e+00 0.000000e+00 0.000000e+00 0.000000e+00 0.000000e+00 0.000000e+00 0.000000e+00 0.000000e+00 0.000000e+00 0.000000e+00 0.000000e+00 


