# 80 rows of flux data
# 12 columns of flux data
# 
# total cross-sectional flux  1.041787e+00 /m^2/yr
#
#                             +x ram      -x wake      +y port -y starboard    +z zenith     -z nadir        Earth          Sun     anti-Sun      rot (x)      rot (y)      rot (z) 
# average speed (km/s)         37.53        37.53        36.13        38.94        31.61        44.97        37.59        27.88        27.88        33.94        33.93        37.42 
# total flux (#/m2/yr)  2.349670e-01 2.348423e-01 2.783193e-01 1.985099e-01 6.269881e-01 1.803647e-04 2.343151e-01 1.697260e-01 1.697472e-01 8.653653e-01 8.534754e-01 7.434456e-01 
# velocity (km/s)
     0.5                0.000000e+00 0.000000e+00 0.000000e+00 0.000000e+00 0.000000e+00 0.000000e+00 0.000000e+00 0.000000e+00 0.000000e+00 0.000000e+00 0.000000e+00 0.000000e+00 
     1.5                0.000000e+00 0.000000e+00 0.000000e+00 0.000000e+00 0.000000e+00 0.000000e+00 0.000000e+00 0.000000e+00 0.000000e+00 0.000000e+00 0.000000e+00 0.000000e+00 
     2.5                9.008628e-05 9.029155e-05 1.192877e-04 3.305111e-05 1.424671e-04 6.903812e-08 8.961999e-05 8.148498e-05 8.161846e-05 2.313806e-04 2.526930e-04 2.617004e-04 
     3.5                4.473985e-04 4.475068e-04 4.673771e-04 3.820678e-04 7.297803e-04 4.680190e-07 4.453322e-04 4.316774e-04 4.315697e-04 1.234329e-03 1.268695e-03 1.369194e-03 
     4.5                9.374826e-04 9.370603e-04 8.554550e-04 1.008158e-03 1.664335e-03 1.069443e-06 9.328922e-04 9.856881e-04 9.858360e-04 2.759690e-03 2.767989e-03 2.936131e-03 
     5.5                1.462609e-03 1.461809e-03 1.309248e-03 1.646387e-03 2.829467e-03 1.647067e-06 1.454621e-03 1.642471e-03 1.642644e-03 4.523160e-03 4.500057e-03 4.618053e-03 
     6.5                1.979287e-03 1.977818e-03 1.786592e-03 2.232680e-03 4.258129e-03 2.142926e-06 1.967986e-03 2.307758e-03 2.308203e-03 6.491061e-03 6.439614e-03 6.265051e-03 
     7.5                2.436721e-03 2.436148e-03 2.296156e-03 2.675755e-03 5.761282e-03 2.508434e-06 2.422136e-03 2.905906e-03 2.906119e-03 8.428416e-03 8.343441e-03 7.732550e-03 
     8.5                2.841166e-03 2.839747e-03 2.768434e-03 3.025652e-03 7.235788e-03 2.806785e-06 2.823827e-03 3.443756e-03 3.444277e-03 1.025866e-02 1.015926e-02 9.013653e-03 
     9.5                3.205848e-03 3.204603e-03 3.215136e-03 3.313105e-03 8.658467e-03 2.928596e-06 3.185460e-03 3.938760e-03 3.939111e-03 1.197375e-02 1.186781e-02 1.016219e-02 
    10.5                3.490059e-03 3.488081e-03 3.685983e-03 3.477009e-03 1.003197e-02 3.025687e-06 3.466953e-03 4.376925e-03 4.377728e-03 1.357376e-02 1.341340e-02 1.110588e-02 
    11.5                3.796362e-03 3.794798e-03 4.137219e-03 3.637080e-03 1.166996e-02 3.048614e-06 3.770576e-03 4.843899e-03 4.844463e-03 1.538314e-02 1.523640e-02 1.206892e-02 
    12.5                4.008086e-03 4.006199e-03 4.475914e-03 3.733551e-03 1.291480e-02 3.088979e-06 3.980335e-03 5.164040e-03 5.164674e-03 1.672255e-02 1.656019e-02 1.274365e-02 
    13.5                4.093188e-03 4.091873e-03 4.674748e-03 3.736068e-03 1.401175e-02 3.001666e-06 4.066032e-03 5.305293e-03 5.305966e-03 1.782737e-02 1.765475e-02 1.303419e-02 
    14.5                4.114369e-03 4.112951e-03 4.955988e-03 3.613873e-03 1.455292e-02 2.853972e-06 4.086727e-03 5.349310e-03 5.350114e-03 1.836857e-02 1.814438e-02 1.319255e-02 
    15.5                4.229358e-03 4.227044e-03 5.198426e-03 3.576016e-03 1.571009e-02 2.763834e-06 4.201266e-03 5.456686e-03 5.457466e-03 1.951785e-02 1.928958e-02 1.353092e-02 
    16.5                4.216215e-03 4.214290e-03 5.321255e-03 3.478022e-03 1.598616e-02 2.602294e-06 4.188171e-03 5.465681e-03 5.466302e-03 1.975909e-02 1.950359e-02 1.353236e-02 
    17.5                4.228927e-03 4.226265e-03 5.422737e-03 3.405239e-03 1.643539e-02 2.533595e-06 4.201174e-03 5.418326e-03 5.419150e-03 2.014271e-02 1.988642e-02 1.357344e-02 
    18.5                4.247404e-03 4.245745e-03 5.596822e-03 3.322086e-03 1.689398e-02 2.377624e-06 4.219505e-03 5.377363e-03 5.378056e-03 2.057925e-02 2.028681e-02 1.367518e-02 
    19.5                4.244191e-03 4.241756e-03 5.626355e-03 3.216326e-03 1.700780e-02 2.193840e-06 4.216565e-03 5.260120e-03 5.260784e-03 2.059836e-02 2.033750e-02 1.360655e-02 
    20.5                4.141744e-03 4.139484e-03 5.574519e-03 3.123617e-03 1.681082e-02 1.992573e-06 4.114988e-03 5.067472e-03 5.068328e-03 2.030304e-02 1.999286e-02 1.333199e-02 
    21.5                4.105684e-03 4.104037e-03 5.690567e-03 2.941695e-03 1.687776e-02 1.841519e-06 4.079762e-03 4.913287e-03 4.913817e-03 2.029695e-02 1.998431e-02 1.322568e-02 
    22.5                4.118616e-03 4.116194e-03 5.667716e-03 2.924810e-03 1.717781e-02 1.707306e-06 4.093746e-03 4.787516e-03 4.788054e-03 2.050263e-02 2.021753e-02 1.321418e-02 
    23.5                3.891455e-03 3.889340e-03 5.393621e-03 2.762963e-03 1.626400e-02 1.579571e-06 3.867928e-03 4.477748e-03 4.478732e-03 1.941472e-02 1.911066e-02 1.251486e-02 
    24.5                3.747510e-03 3.745910e-03 5.263277e-03 2.583227e-03 1.556043e-02 1.412613e-06 3.724434e-03 4.210698e-03 4.211143e-03 1.857081e-02 1.827321e-02 1.204357e-02 
    25.5                3.642501e-03 3.639914e-03 5.120852e-03 2.476579e-03 1.520747e-02 1.267185e-06 3.620333e-03 3.973681e-03 3.974349e-03 1.809619e-02 1.780820e-02 1.168354e-02 
    26.5                3.565002e-03 3.563382e-03 5.061655e-03 2.367677e-03 1.461871e-02 1.164029e-06 3.543504e-03 3.770614e-03 3.771001e-03 1.744940e-02 1.715599e-02 1.142997e-02 
    27.5                3.466335e-03 3.464598e-03 4.844581e-03 2.306029e-03 1.406399e-02 1.023679e-06 3.445948e-03 3.561892e-03 3.562212e-03 1.676733e-02 1.649963e-02 1.105474e-02 
    28.5                3.326448e-03 3.324048e-03 4.713217e-03 2.177893e-03 1.343387e-02 9.103897e-07 3.307574e-03 3.285803e-03 3.286588e-03 1.601811e-02 1.573610e-02 1.063146e-02 
    29.5                3.156714e-03 3.155102e-03 4.396280e-03 2.072045e-03 1.274579e-02 7.842632e-07 3.139480e-03 2.979410e-03 2.979823e-03 1.513718e-02 1.490683e-02 1.003419e-02 
    30.5                2.977109e-03 2.975846e-03 4.286713e-03 1.893055e-03 1.211069e-02 6.449940e-07 2.961407e-03 2.759228e-03 2.759453e-03 1.438993e-02 1.412114e-02 9.524805e-03 
    31.5                2.929371e-03 2.928108e-03 4.222117e-03 1.799685e-03 1.171823e-02 5.369187e-07 2.914192e-03 2.585562e-03 2.586058e-03 1.392395e-02 1.366988e-02 9.323933e-03 
    32.5                2.816618e-03 2.813832e-03 3.992131e-03 1.748434e-03 1.101672e-02 4.872578e-07 2.802863e-03 2.367735e-03 2.367914e-03 1.312227e-02 1.290467e-02 8.929625e-03 
    33.5                2.812115e-03 2.810430e-03 4.045948e-03 1.736698e-03 1.060962e-02 4.476524e-07 2.799490e-03 2.184741e-03 2.185157e-03 1.276631e-02 1.251704e-02 8.951847e-03 
    34.5                2.851458e-03 2.851245e-03 4.047856e-03 1.747378e-03 1.069495e-02 3.679017e-07 2.839405e-03 2.102544e-03 2.102744e-03 1.284785e-02 1.260795e-02 9.024952e-03 
    35.5                2.732228e-03 2.729170e-03 3.818658e-03 1.692741e-03 9.849925e-03 3.178121e-07 2.720833e-03 1.961454e-03 1.961660e-03 1.192571e-02 1.171959e-02 8.615033e-03 
    36.5                2.729494e-03 2.727871e-03 3.883262e-03 1.657536e-03 9.569375e-03 2.759506e-07 2.719127e-03 1.831683e-03 1.832004e-03 1.167141e-02 1.145494e-02 8.636424e-03 
    37.5                2.795817e-03 2.793698e-03 3.945676e-03 1.724148e-03 9.680260e-03 2.125611e-07 2.786753e-03 1.771603e-03 1.771800e-03 1.187047e-02 1.162578e-02 8.842977e-03 
    38.5                2.864949e-03 2.864344e-03 4.134172e-03 1.688171e-03 9.385452e-03 1.670878e-07 2.856395e-03 1.696770e-03 1.697158e-03 1.171361e-02 1.145645e-02 9.068649e-03 
    39.5                2.953917e-03 2.950346e-03 3.981311e-03 1.865953e-03 9.393776e-03 1.444226e-07 2.945829e-03 1.643977e-03 1.644044e-03 1.170447e-02 1.155483e-02 9.229292e-03 
    40.5                2.928143e-03 2.927483e-03 4.048947e-03 1.851251e-03 9.178722e-03 1.763670e-07 2.920028e-03 1.575473e-03 1.575709e-03 1.155930e-02 1.133604e-02 9.232422e-03 
    41.5                3.104348e-03 3.103040e-03 4.331744e-03 1.886878e-03 9.140767e-03 3.399233e-07 3.096859e-03 1.554496e-03 1.554817e-03 1.176581e-02 1.154479e-02 9.752871e-03 
    42.5                3.229512e-03 3.229532e-03 4.144314e-03 2.165725e-03 8.998358e-03 4.316578e-07 3.222504e-03 1.549710e-03 1.549907e-03 1.170058e-02 1.159673e-02 1.003041e-02 
    43.5                3.199853e-03 3.197449e-03 4.294189e-03 2.176541e-03 8.507178e-03 3.760111e-07 3.193816e-03 1.504729e-03 1.504765e-03 1.143084e-02 1.117456e-02 1.010442e-02 
    44.5                3.513916e-03 3.514553e-03 4.713399e-03 2.320643e-03 8.815597e-03 3.856860e-07 3.508170e-03 1.553704e-03 1.553871e-03 1.207024e-02 1.183920e-02 1.104375e-02 
    45.5                3.625746e-03 3.621280e-03 4.611948e-03 2.567989e-03 8.948063e-03 5.031447e-07 3.620958e-03 1.549892e-03 1.550257e-03 1.226364e-02 1.208912e-02 1.133062e-02 
    46.5                3.645959e-03 3.647841e-03 4.657732e-03 2.509108e-03 8.662896e-03 5.071568e-07 3.641473e-03 1.509053e-03 1.509102e-03 1.204026e-02 1.191605e-02 1.135529e-02 
    47.5                3.824317e-03 3.820139e-03 4.844378e-03 2.733179e-03 8.573056e-03 1.140378e-06 3.820129e-03 1.534742e-03 1.534646e-03 1.233458e-02 1.214194e-02 1.195605e-02 
    48.5                4.103578e-03 4.104785e-03 5.239133e-03 2.889522e-03 8.463728e-03 1.233912e-06 4.099855e-03 1.591878e-03 1.592240e-03 1.268586e-02 1.251206e-02 1.282724e-02 
    49.5                4.470434e-03 4.469909e-03 5.657094e-03 3.323290e-03 8.748576e-03 1.606117e-06 4.468395e-03 1.656056e-03 1.656077e-03 1.357702e-02 1.327752e-02 1.407184e-02 
    50.5                4.970776e-03 4.968241e-03 6.321004e-03 3.542298e-03 8.964294e-03 2.074182e-06 4.968613e-03 1.733879e-03 1.733983e-03 1.449196e-02 1.425040e-02 1.554278e-02 
    51.5                5.645968e-03 5.643822e-03 6.787284e-03 4.189621e-03 9.297703e-03 2.706181e-06 5.645156e-03 1.816759e-03 1.817152e-03 1.564640e-02 1.561213e-02 1.748882e-02 
    52.5                5.981631e-03 5.981518e-03 6.595395e-03 5.039088e-03 9.288630e-03 4.973486e-06 5.983853e-03 1.875056e-03 1.874982e-03 1.618038e-02 1.620050e-02 1.853872e-02 
    53.5                6.106259e-03 6.105362e-03 6.559444e-03 5.426248e-03 8.891560e-03 6.992021e-06 6.110541e-03 1.907934e-03 1.908176e-03 1.621212e-02 1.618025e-02 1.900078e-02 
    54.5                6.088685e-03 6.082883e-03 6.189397e-03 5.745855e-03 8.532614e-03 7.829723e-06 6.094241e-03 1.899937e-03 1.900276e-03 1.592807e-02 1.591282e-02 1.894359e-02 
    55.5                5.959358e-03 5.954438e-03 6.105869e-03 5.923790e-03 8.126793e-03 8.458053e-06 5.965001e-03 1.874769e-03 1.874671e-03 1.572687e-02 1.544491e-02 1.879996e-02 
    56.5                5.872454e-03 5.868911e-03 5.751151e-03 5.914877e-03 7.769439e-03 8.499069e-06 5.877977e-03 1.839837e-03 1.840016e-03 1.517495e-02 1.504776e-02 1.838119e-02 
    57.5                5.490733e-03 5.485750e-03 5.221392e-03 5.738201e-03 7.131853e-03 7.655163e-06 5.497270e-03 1.766485e-03 1.766619e-03 1.415599e-02 1.400634e-02 1.723993e-02 
    58.5                5.167490e-03 5.166708e-03 5.001798e-03 5.377174e-03 6.406951e-03 7.278487e-06 5.174711e-03 1.649074e-03 1.649063e-03 1.317323e-02 1.299571e-02 1.626284e-02 
    59.5                4.921863e-03 4.920224e-03 4.747419e-03 5.086908e-03 5.892473e-03 7.667511e-06 4.928399e-03 1.516537e-03 1.516711e-03 1.237330e-02 1.224096e-02 1.544666e-02 
    60.5                4.599696e-03 4.591803e-03 4.241617e-03 4.925072e-03 5.404929e-03 7.819687e-06 4.607067e-03 1.358564e-03 1.358756e-03 1.147038e-02 1.138842e-02 1.441964e-02 
    61.5                4.174600e-03 4.171372e-03 3.640947e-03 4.612498e-03 4.673450e-03 7.919585e-06 4.181317e-03 1.197795e-03 1.197976e-03 1.021701e-02 1.021476e-02 1.304753e-02 
    62.5                3.605943e-03 3.606183e-03 2.946708e-03 4.419493e-03 3.993455e-03 7.462295e-06 3.613317e-03 1.032951e-03 1.032808e-03 8.984338e-03 8.814362e-03 1.145502e-02 
    63.5                2.970867e-03 2.965349e-03 2.366331e-03 3.721092e-03 3.168379e-03 6.506297e-06 2.977379e-03 8.604782e-04 8.606635e-04 7.351499e-03 7.183890e-03 9.447951e-03 
    64.5                2.408664e-03 2.407133e-03 1.877588e-03 3.066764e-03 2.528845e-03 5.556853e-06 2.414274e-03 6.874273e-04 6.874157e-04 5.939219e-03 5.808985e-03 7.671399e-03 
    65.5                1.901228e-03 1.900845e-03 1.388981e-03 2.487637e-03 1.936168e-03 4.539104e-06 1.905852e-03 5.223277e-04 5.223862e-04 4.626692e-03 4.556271e-03 6.037570e-03 
    66.5                1.467034e-03 1.465151e-03 9.785250e-04 2.066957e-03 1.458685e-03 3.860750e-06 1.471168e-03 3.834498e-04 3.834700e-04 3.594839e-03 3.501130e-03 4.698265e-03 
    67.5                1.026038e-03 1.023220e-03 5.984569e-04 1.555300e-03 1.003180e-03 2.869805e-06 1.029380e-03 2.555331e-04 2.555934e-04 2.522143e-03 2.443399e-03 3.304526e-03 
    68.5                6.583123e-04 6.573054e-04 3.146624e-04 1.105382e-03 6.267886e-04 2.195669e-06 6.607961e-04 1.534050e-04 1.534048e-04 1.640252e-03 1.563797e-03 2.152357e-03 
    69.5                3.724580e-04 3.720637e-04 1.188969e-04 7.286238e-04 3.500071e-04 1.484986e-06 3.743689e-04 7.980602e-05 7.981807e-05 9.631370e-04 8.851983e-04 1.252612e-03 
    70.5                1.723960e-04 1.722041e-04 2.405615e-05 4.100317e-04 1.593780e-04 7.000082e-07 1.734875e-04 3.412888e-05 3.412556e-05 4.816731e-04 4.095264e-04 6.132924e-04 
    71.5                5.517010e-05 5.522155e-05 2.170806e-06 1.667975e-04 5.210966e-05 1.857142e-07 5.572652e-05 9.966740e-06 9.967423e-06 1.818015e-04 1.323775e-04 2.195104e-04 
    72.5                9.206432e-06 9.214210e-06 5.938636e-08 3.125190e-05 8.639935e-06 1.359191e-08 9.338224e-06 1.582512e-06 1.584244e-06 3.297157e-05 2.207379e-05 3.915350e-05 
    73.5                4.923521e-07 4.958425e-07 0.000000e+00 2.396794e-06 6.446818e-07 0.000000e+00 5.038785e-07 6.729663e-08 6.726598e-08 2.490395e-06 1.268055e-06 2.692459e-06 
    74.5                0.000000e+00 0.000000e+00 0.000000e+00 0.000000e+00 0.000000e+00 0.000000e+00 0.000000e+00 0.000000e+00 0.000000e+00 0.000000e+00 0.000000e+00 0.000000e+00 
    75.5                0.000000e+00 0.000000e+00 0.000000e+00 0.000000e+00 0.000000e+00 0.000000e+00 0.000000e+00 0.000000e+00 0.000000e+00 0.000000e+00 0.000000e+00 0.000000e+00 
    76.5                0.000000e+00 0.000000e+00 0.000000e+00 0.000000e+00 0.000000e+00 0.000000e+00 0.000000e+00 0.000000e+00 0.000000e+00 0.000000e+00 0.000000e+00 0.000000e+00 
    77.5                0.000000e+00 0.000000e+00 0.000000e+00 0.000000e+00 0.000000e+00 0.000000e+00 0.000000e+00 0.000000e+00 0.000000e+00 0.000000e+00 0.000000e+00 0.000000e+00 
    78.5                0.000000e+00 0.000000e+00 0.000000e+00 0.000000e+00 0.000000e+00 0.000000e+00 0.000000e+00 0.000000e+00 0.000000e+00 0.000000e+00 0.000000e+00 0.000000e+00 
    79.5                0.000000e+00 0.000000e+00 0.000000e+00 0.000000e+00 0.000000e+00 0.000000e+00 0.000000e+00 0.000000e+00 0.000000e+00 0.000000e+00 0.000000e+00 0.000000e+00 


