# 80 rows of flux data
# 12 columns of flux data
# 
# total cross-sectional flux  2.291766e+00 /m^2/yr
#
#                             +x ram      -x wake      +y port -y starboard    +z zenith     -z nadir        Earth          Sun     anti-Sun      rot (x)      rot (y)      rot (z) 
# average speed (km/s)         24.49        24.48        24.31        17.49        24.58        23.45        24.48        25.01        25.01        24.02        24.53        24.18 
# total flux (#/m2/yr)  6.973615e-01 6.967527e-01 6.231082e-01 1.064218e-01 1.277291e+00 5.477741e-04 6.903645e-01 9.990704e-01 9.993069e-01 1.556067e+00 2.105414e+00 1.708679e+00 
# velocity (km/s)
     0.5                0.000000e+00 0.000000e+00 0.000000e+00 0.000000e+00 0.000000e+00 0.000000e+00 0.000000e+00 0.000000e+00 0.000000e+00 0.000000e+00 0.000000e+00 0.000000e+00 
     1.5                0.000000e+00 0.000000e+00 0.000000e+00 0.000000e+00 0.000000e+00 0.000000e+00 0.000000e+00 0.000000e+00 0.000000e+00 0.000000e+00 0.000000e+00 0.000000e+00 
     2.5                7.445450e-08 9.537733e-08 0.000000e+00 8.915552e-08 3.840061e-09 1.406030e-09 7.404593e-08 7.668206e-08 5.611738e-08 8.972290e-08 1.700004e-07 2.105657e-07 
     3.5                3.338922e-05 3.375498e-05 5.044623e-06 1.530851e-05 1.594017e-05 6.356271e-08 3.326469e-05 1.863516e-05 1.858003e-05 2.995896e-05 7.036565e-05 7.373381e-05 
     4.5                2.288719e-04 2.305872e-04 1.095841e-04 9.054084e-05 2.560212e-04 3.111671e-07 2.280369e-04 1.340278e-04 1.335437e-04 3.625306e-04 5.737461e-04 5.323889e-04 
     5.5                8.709546e-04 8.765582e-04 5.252982e-04 3.685272e-04 1.123381e-03 1.127279e-06 8.676737e-04 5.707955e-04 5.696413e-04 1.598398e-03 2.288740e-03 2.097992e-03 
     6.5                2.225184e-03 2.229822e-03 1.737787e-03 8.716005e-04 3.541080e-03 2.349128e-06 2.215994e-03 1.716371e-03 1.716105e-03 4.857681e-03 6.318855e-03 5.565732e-03 
     7.5                3.927840e-03 3.933901e-03 3.278247e-03 1.658263e-03 6.557388e-03 4.152589e-06 3.910193e-03 3.342335e-03 3.341707e-03 9.077533e-03 1.139326e-02 1.007008e-02 
     8.5                6.514499e-03 6.519668e-03 5.635264e-03 2.556369e-03 1.102479e-02 6.579540e-06 6.483411e-03 5.758267e-03 5.759782e-03 1.514486e-02 1.900372e-02 1.671900e-02 
     9.5                9.634329e-03 9.637894e-03 8.544754e-03 3.671721e-03 1.676010e-02 9.395268e-06 9.585044e-03 8.921031e-03 8.922961e-03 2.284213e-02 2.841866e-02 2.478473e-02 
    10.5                1.229128e-02 1.228152e-02 1.163041e-02 4.981932e-03 2.257215e-02 1.167686e-05 1.222262e-02 1.256651e-02 1.256960e-02 3.089787e-02 3.714501e-02 3.232983e-02 
    11.5                1.453530e-02 1.453139e-02 1.391195e-02 6.266037e-03 2.670341e-02 1.399473e-05 1.444102e-02 1.634908e-02 1.635159e-02 3.692708e-02 4.394774e-02 3.865483e-02 
    12.5                1.632678e-02 1.631823e-02 1.596161e-02 7.022049e-03 3.058735e-02 1.553378e-05 1.620872e-02 1.984115e-02 1.984600e-02 4.218260e-02 4.981562e-02 4.377524e-02 
    13.5                1.758376e-02 1.757120e-02 1.715384e-02 7.453288e-03 3.290441e-02 1.689306e-05 1.744266e-02 2.260597e-02 2.261099e-02 4.525055e-02 5.363695e-02 4.712054e-02 
    14.5                1.944002e-02 1.942646e-02 1.857407e-02 7.533398e-03 3.586895e-02 1.815476e-05 1.927147e-02 2.585933e-02 2.586416e-02 4.870833e-02 5.891304e-02 5.140817e-02 
    15.5                2.109391e-02 2.108204e-02 1.984751e-02 7.146062e-03 3.882627e-02 1.918765e-05 2.090083e-02 2.891114e-02 2.891784e-02 5.166875e-02 6.387726e-02 5.490674e-02 
    16.5                2.280075e-02 2.278278e-02 2.124535e-02 6.878093e-03 4.202410e-02 2.011506e-05 2.258128e-02 3.202784e-02 3.203548e-02 5.499212e-02 6.906059e-02 5.862097e-02 
    17.5                2.409957e-02 2.408530e-02 2.227964e-02 6.347786e-03 4.427272e-02 2.065307e-05 2.385942e-02 3.449830e-02 3.450583e-02 5.707426e-02 7.289397e-02 6.124974e-02 
    18.5                2.535348e-02 2.533809e-02 2.312345e-02 5.708865e-03 4.631571e-02 2.122440e-05 2.509224e-02 3.694395e-02 3.695203e-02 5.875688e-02 7.649676e-02 6.356708e-02 
    19.5                2.640559e-02 2.638591e-02 2.395263e-02 5.272366e-03 4.831175e-02 2.149195e-05 2.612570e-02 3.906997e-02 3.907958e-02 6.056493e-02 7.970263e-02 6.567219e-02 
    20.5                2.695078e-02 2.693185e-02 2.432324e-02 4.736397e-03 4.929694e-02 2.156983e-05 2.666008e-02 4.033399e-02 4.034313e-02 6.112947e-02 8.135231e-02 6.654995e-02 
    21.5                2.753313e-02 2.751612e-02 2.454245e-02 4.135955e-03 5.000164e-02 2.187060e-05 2.723293e-02 4.137187e-02 4.138227e-02 6.130083e-02 8.283958e-02 6.732333e-02 
    22.5                2.848740e-02 2.846906e-02 2.518229e-02 3.850117e-03 5.155645e-02 2.231953e-05 2.817383e-02 4.296284e-02 4.297222e-02 6.269426e-02 8.556784e-02 6.925907e-02 
    23.5                2.909486e-02 2.907482e-02 2.567797e-02 3.339656e-03 5.281184e-02 2.234039e-05 2.877193e-02 4.412781e-02 4.413850e-02 6.358836e-02 8.749753e-02 7.032758e-02 
    24.5                2.922930e-02 2.920718e-02 2.566649e-02 2.909402e-03 5.303367e-02 2.218026e-05 2.890314e-02 4.441207e-02 4.442168e-02 6.333877e-02 8.788340e-02 7.030689e-02 
    25.5                2.926831e-02 2.924624e-02 2.557411e-02 2.501448e-03 5.306473e-02 2.200901e-05 2.894207e-02 4.444372e-02 4.445432e-02 6.287477e-02 8.796546e-02 7.007723e-02 
    26.5                2.907628e-02 2.905213e-02 2.531535e-02 2.120855e-03 5.278372e-02 2.155141e-05 2.875241e-02 4.416468e-02 4.417434e-02 6.205494e-02 8.742824e-02 6.935466e-02 
    27.5                2.832645e-02 2.830086e-02 2.468588e-02 1.808683e-03 5.164768e-02 2.074792e-05 2.801143e-02 4.306102e-02 4.307338e-02 6.034209e-02 8.534265e-02 6.742900e-02 
    28.5                2.748856e-02 2.746318e-02 2.379794e-02 1.527630e-03 4.996469e-02 2.007596e-05 2.718443e-02 4.163419e-02 4.164252e-02 5.804642e-02 8.269748e-02 6.521793e-02 
    29.5                2.655209e-02 2.652608e-02 2.298022e-02 1.279788e-03 4.838211e-02 1.915067e-05 2.625992e-02 4.013665e-02 4.014701e-02 5.591242e-02 7.995624e-02 6.287089e-02 
    30.5                2.527552e-02 2.525054e-02 2.185662e-02 1.042732e-03 4.613967e-02 1.811635e-05 2.499963e-02 3.810836e-02 3.811702e-02 5.305939e-02 7.617753e-02 5.975162e-02 
    31.5                2.387837e-02 2.385189e-02 2.062540e-02 8.315485e-04 4.365983e-02 1.696543e-05 2.361942e-02 3.586683e-02 3.587595e-02 4.995532e-02 7.201401e-02 5.634808e-02 
    32.5                2.226909e-02 2.224420e-02 1.923889e-02 6.530710e-04 4.081862e-02 1.568876e-05 2.202996e-02 3.330385e-02 3.331270e-02 4.648527e-02 6.723323e-02 5.248496e-02 
    33.5                2.045212e-02 2.042453e-02 1.771692e-02 5.136091e-04 3.765855e-02 1.422047e-05 2.023496e-02 3.044305e-02 3.045065e-02 4.271953e-02 6.186513e-02 4.817413e-02 
    34.5                1.838952e-02 1.836537e-02 1.597433e-02 4.019376e-04 3.399822e-02 1.269290e-05 1.819720e-02 2.723447e-02 2.724083e-02 3.844905e-02 5.572778e-02 4.330960e-02 
    35.5                1.631925e-02 1.629495e-02 1.420689e-02 3.004700e-04 3.027787e-02 1.114482e-05 1.615059e-02 2.403750e-02 2.404510e-02 3.413121e-02 4.952732e-02 3.841919e-02 
    36.5                1.424742e-02 1.422562e-02 1.242545e-02 2.150653e-04 2.651559e-02 9.655882e-06 1.410266e-02 2.084731e-02 2.085187e-02 2.979339e-02 4.329995e-02 3.352674e-02 
    37.5                1.226299e-02 1.224262e-02 1.072702e-02 1.519423e-04 2.291652e-02 8.208296e-06 1.214035e-02 1.781520e-02 1.782035e-02 2.567476e-02 3.733244e-02 2.885318e-02 
    38.5                1.032312e-02 1.030415e-02 9.067926e-03 1.038680e-04 1.938939e-02 6.820991e-06 1.022152e-02 1.489781e-02 1.490213e-02 2.166848e-02 3.149761e-02 2.429491e-02 
    39.5                8.444180e-03 8.427375e-03 7.482089e-03 6.676067e-05 1.601227e-02 5.469974e-06 8.362732e-03 1.212045e-02 1.212406e-02 1.785186e-02 2.587201e-02 1.989646e-02 
    40.5                6.612405e-03 6.596689e-03 5.923209e-03 4.098141e-05 1.268452e-02 4.187553e-06 6.549896e-03 9.440073e-03 9.443117e-03 1.411285e-02 2.036484e-02 1.560763e-02 
    41.5                4.931350e-03 4.918181e-03 4.476257e-03 2.364208e-05 9.590930e-03 3.039111e-06 4.885774e-03 7.010513e-03 7.012647e-03 1.065223e-02 1.528280e-02 1.166746e-02 
    42.5                3.502685e-03 3.492922e-03 3.212903e-03 1.278374e-05 6.887045e-03 2.110587e-06 3.471006e-03 4.951816e-03 4.953330e-03 7.637708e-03 1.091051e-02 8.303661e-03 
    43.5                2.368627e-03 2.360801e-03 2.208207e-03 6.609070e-06 4.734742e-03 1.370704e-06 2.347644e-03 3.335439e-03 3.336715e-03 5.244608e-03 7.432797e-03 5.632064e-03 
    44.5                1.454235e-03 1.448760e-03 1.399990e-03 2.949379e-06 3.002376e-03 7.874997e-07 1.441709e-03 2.057263e-03 2.057941e-03 3.322306e-03 4.633347e-03 3.481502e-03 
    45.5                7.807560e-04 7.771558e-04 7.805742e-04 1.139000e-06 1.674180e-03 3.847772e-07 7.742505e-04 1.112748e-03 1.113088e-03 1.851059e-03 2.532904e-03 1.884483e-03 
    46.5                3.426133e-04 3.406716e-04 3.638309e-04 3.584704e-07 7.802886e-04 1.450511e-07 3.398862e-04 4.984712e-04 4.988204e-04 8.622433e-04 1.144971e-03 8.385620e-04 
    47.5                1.080521e-04 1.073427e-04 1.249417e-04 7.734004e-08 2.679252e-04 3.822976e-08 1.072377e-04 1.633491e-04 1.634208e-04 2.959430e-04 3.779742e-04 2.705109e-04 
    48.5                2.356660e-05 2.339576e-05 3.006309e-05 1.030948e-08 6.445605e-05 5.713999e-09 2.340166e-05 3.734853e-05 3.737993e-05 7.117359e-05 8.701883e-05 6.063736e-05 
    49.5                2.783626e-06 2.764317e-06 4.167071e-06 3.527075e-10 8.931945e-06 1.986208e-10 2.766859e-06 4.835271e-06 4.846139e-06 9.860331e-06 1.128018e-05 7.523584e-06 
    50.5                5.339988e-08 5.371837e-08 1.194030e-07 0.000000e+00 2.558794e-07 0.000000e+00 5.327605e-08 1.237302e-07 1.238924e-07 2.824379e-07 2.859302e-07 1.700295e-07 
    51.5                0.000000e+00 0.000000e+00 0.000000e+00 0.000000e+00 0.000000e+00 0.000000e+00 0.000000e+00 0.000000e+00 0.000000e+00 0.000000e+00 0.000000e+00 0.000000e+00 
    52.5                0.000000e+00 0.000000e+00 0.000000e+00 0.000000e+00 0.000000e+00 0.000000e+00 0.000000e+00 0.000000e+00 0.000000e+00 0.000000e+00 0.000000e+00 0.000000e+00 
    53.5                0.000000e+00 0.000000e+00 0.000000e+00 0.000000e+00 0.000000e+00 0.000000e+00 0.000000e+00 0.000000e+00 0.000000e+00 0.000000e+00 0.000000e+00 0.000000e+00 
    54.5                0.000000e+00 0.000000e+00 0.000000e+00 0.000000e+00 0.000000e+00 0.000000e+00 0.000000e+00 0.000000e+00 0.000000e+00 0.000000e+00 0.000000e+00 0.000000e+00 
    55.5                0.000000e+00 0.000000e+00 0.000000e+00 0.000000e+00 0.000000e+00 0.000000e+00 0.000000e+00 0.000000e+00 0.000000e+00 0.000000e+00 0.000000e+00 0.000000e+00 
    56.5                0.000000e+00 0.000000e+00 0.000000e+00 0.000000e+00 0.000000e+00 0.000000e+00 0.000000e+00 0.000000e+00 0.000000e+00 0.000000e+00 0.000000e+00 0.000000e+00 
    57.5                0.000000e+00 0.000000e+00 0.000000e+00 0.000000e+00 0.000000e+00 0.000000e+00 0.000000e+00 0.000000e+00 0.000000e+00 0.000000e+00 0.000000e+00 0.000000e+00 
    58.5                0.000000e+00 0.000000e+00 0.000000e+00 0.000000e+00 0.000000e+00 0.000000e+00 0.000000e+00 0.000000e+00 0.000000e+00 0.000000e+00 0.000000e+00 0.000000e+00 
    59.5                0.000000e+00 0.000000e+00 0.000000e+00 0.000000e+00 0.000000e+00 0.000000e+00 0.000000e+00 0.000000e+00 0.000000e+00 0.000000e+00 0.000000e+00 0.000000e+00 
    60.5                0.000000e+00 0.000000e+00 0.000000e+00 0.000000e+00 0.000000e+00 0.000000e+00 0.000000e+00 0.000000e+00 0.000000e+00 0.000000e+00 0.000000e+00 0.000000e+00 
    61.5                0.000000e+00 0.000000e+00 0.000000e+00 0.000000e+00 0.000000e+00 0.000000e+00 0.000000e+00 0.000000e+00 0.000000e+00 0.000000e+00 0.000000e+00 0.000000e+00 
    62.5                0.000000e+00 0.000000e+00 0.000000e+00 0.000000e+00 0.000000e+00 0.000000e+00 0.000000e+00 0.000000e+00 0.000000e+00 0.000000e+00 0.000000e+00 0.000000e+00 
    63.5                0.000000e+00 0.000000e+00 0.000000e+00 0.000000e+00 0.000000e+00 0.000000e+00 0.000000e+00 0.000000e+00 0.000000e+00 0.000000e+00 0.000000e+00 0.000000e+00 
    64.5                0.000000e+00 0.000000e+00 0.000000e+00 0.000000e+00 0.000000e+00 0.000000e+00 0.000000e+00 0.000000e+00 0.000000e+00 0.000000e+00 0.000000e+00 0.000000e+00 
    65.5                0.000000e+00 0.000000e+00 0.000000e+00 0.000000e+00 0.000000e+00 0.000000e+00 0.000000e+00 0.000000e+00 0.000000e+00 0.000000e+00 0.000000e+00 0.000000e+00 
    66.5                0.000000e+00 0.000000e+00 0.000000e+00 0.000000e+00 0.000000e+00 0.000000e+00 0.000000e+00 0.000000e+00 0.000000e+00 0.000000e+00 0.000000e+00 0.000000e+00 
    67.5                0.000000e+00 0.000000e+00 0.000000e+00 0.000000e+00 0.000000e+00 0.000000e+00 0.000000e+00 0.000000e+00 0.000000e+00 0.000000e+00 0.000000e+00 0.000000e+00 
    68.5                0.000000e+00 0.000000e+00 0.000000e+00 0.000000e+00 0.000000e+00 0.000000e+00 0.000000e+00 0.000000e+00 0.000000e+00 0.000000e+00 0.000000e+00 0.000000e+00 
    69.5                0.000000e+00 0.000000e+00 0.000000e+00 0.000000e+00 0.000000e+00 0.000000e+00 0.000000e+00 0.000000e+00 0.000000e+00 0.000000e+00 0.000000e+00 0.000000e+00 
    70.5                0.000000e+00 0.000000e+00 0.000000e+00 0.000000e+00 0.000000e+00 0.000000e+00 0.000000e+00 0.000000e+00 0.000000e+00 0.000000e+00 0.000000e+00 0.000000e+00 
    71.5                0.000000e+00 0.000000e+00 0.000000e+00 0.000000e+00 0.000000e+00 0.000000e+00 0.000000e+00 0.000000e+00 0.000000e+00 0.000000e+00 0.000000e+00 0.000000e+00 
    72.5                0.000000e+00 0.000000e+00 0.000000e+00 0.000000e+00 0.000000e+00 0.000000e+00 0.000000e+00 0.000000e+00 0.000000e+00 0.000000e+00 0.000000e+00 0.000000e+00 
    73.5                0.000000e+00 0.000000e+00 0.000000e+00 0.000000e+00 0.000000e+00 0.000000e+00 0.000000e+00 0.000000e+00 0.000000e+00 0.000000e+00 0.000000e+00 0.000000e+00 
    74.5                0.000000e+00 0.000000e+00 0.000000e+00 0.000000e+00 0.000000e+00 0.000000e+00 0.000000e+00 0.000000e+00 0.000000e+00 0.000000e+00 0.000000e+00 0.000000e+00 
    75.5                0.000000e+00 0.000000e+00 0.000000e+00 0.000000e+00 0.000000e+00 0.000000e+00 0.000000e+00 0.000000e+00 0.000000e+00 0.000000e+00 0.000000e+00 0.000000e+00 
    76.5                0.000000e+00 0.000000e+00 0.000000e+00 0.000000e+00 0.000000e+00 0.000000e+00 0.000000e+00 0.000000e+00 0.000000e+00 0.000000e+00 0.000000e+00 0.000000e+00 
    77.5                0.000000e+00 0.000000e+00 0.000000e+00 0.000000e+00 0.000000e+00 0.000000e+00 0.000000e+00 0.000000e+00 0.000000e+00 0.000000e+00 0.000000e+00 0.000000e+00 
    78.5                0.000000e+00 0.000000e+00 0.000000e+00 0.000000e+00 0.000000e+00 0.000000e+00 0.000000e+00 0.000000e+00 0.000000e+00 0.000000e+00 0.000000e+00 0.000000e+00 
    79.5                0.000000e+00 0.000000e+00 0.000000e+00 0.000000e+00 0.000000e+00 0.000000e+00 0.000000e+00 0.000000e+00 0.000000e+00 0.000000e+00 0.000000e+00 0.000000e+00 


