# 80 rows of flux data
# 12 columns of flux data
# 
# total cross-sectional flux  2.395511e+00 /m^2/yr
#
#                             +x ram      -x wake      +y port -y starboard    +z zenith     -z nadir        Earth          Sun     anti-Sun      rot (x)      rot (y)      rot (z) 
# average speed (km/s)         24.76        24.75        25.16        24.32        20.17        28.88        24.75        25.13        25.13        24.16        24.15        24.76 
# total flux (#/m2/yr)  7.337160e-01 7.315937e-01 7.934507e-01 6.742572e-01 4.332542e-01 3.166450e-03 7.267573e-01 1.051376e+00 1.051379e+00 1.619585e+00 1.617195e+00 2.303563e+00 
# velocity (km/s)
     0.5                0.000000e+00 0.000000e+00 0.000000e+00 0.000000e+00 0.000000e+00 0.000000e+00 0.000000e+00 0.000000e+00 0.000000e+00 0.000000e+00 0.000000e+00 0.000000e+00 
     1.5                0.000000e+00 0.000000e+00 0.000000e+00 0.000000e+00 0.000000e+00 0.000000e+00 0.000000e+00 0.000000e+00 0.000000e+00 0.000000e+00 0.000000e+00 0.000000e+00 
     2.5                1.224825e-06 1.330840e-06 0.000000e+00 5.342560e-06 2.391889e-06 0.000000e+00 1.165526e-06 8.243348e-07 8.205427e-07 5.925585e-06 3.731477e-06 6.218647e-06 
     3.5                7.226262e-05 7.443636e-05 8.311626e-06 1.439825e-04 7.262736e-05 4.890722e-08 7.308563e-05 5.180554e-05 5.187709e-05 1.778470e-04 1.751542e-04 2.351346e-04 
     4.5                3.847492e-04 3.927444e-04 1.889635e-04 6.039958e-04 3.829012e-04 5.235538e-07 3.870663e-04 2.878600e-04 2.876765e-04 9.423334e-04 9.334943e-04 1.233355e-03 
     5.5                1.186089e-03 1.199883e-03 7.239613e-04 1.563504e-03 1.281633e-03 2.021043e-06 1.192527e-03 9.655410e-04 9.654889e-04 2.839479e-03 2.927774e-03 3.672137e-03 
     6.5                2.543100e-03 2.558646e-03 2.129020e-03 2.894637e-03 2.877973e-03 4.965875e-06 2.543690e-03 2.207726e-03 2.207952e-03 6.274803e-03 6.330580e-03 7.951889e-03 
     7.5                4.451905e-03 4.473368e-03 3.834201e-03 5.092037e-03 5.234946e-03 8.397296e-06 4.446023e-03 4.080142e-03 4.078710e-03 1.123433e-02 1.122430e-02 1.401897e-02 
     8.5                7.095339e-03 7.115467e-03 6.396036e-03 7.552911e-03 8.160914e-03 1.234859e-05 7.086087e-03 6.689989e-03 6.689769e-03 1.750830e-02 1.774115e-02 2.211506e-02 
     9.5                9.845363e-03 9.844344e-03 9.691882e-03 9.608603e-03 1.142128e-02 1.722802e-05 9.814218e-03 9.847800e-03 9.847029e-03 2.433759e-02 2.464689e-02 3.062368e-02 
    10.5                1.224838e-02 1.222128e-02 1.292180e-02 1.163292e-02 1.478765e-02 2.185975e-05 1.217045e-02 1.339019e-02 1.339098e-02 3.116009e-02 3.104241e-02 3.850340e-02 
    11.5                1.440330e-02 1.437385e-02 1.516901e-02 1.346311e-02 1.752058e-02 2.657989e-05 1.430710e-02 1.689632e-02 1.689584e-02 3.662470e-02 3.668525e-02 4.509068e-02 
    12.5                1.603384e-02 1.599031e-02 1.740624e-02 1.473676e-02 1.927129e-02 3.131279e-05 1.589927e-02 2.005505e-02 2.005510e-02 4.090910e-02 4.081130e-02 5.040171e-02 
    13.5                1.764243e-02 1.760726e-02 1.879583e-02 1.674777e-02 2.056152e-02 3.594844e-05 1.748800e-02 2.315003e-02 2.314868e-02 4.484226e-02 4.457677e-02 5.559458e-02 
    14.5                1.952431e-02 1.948838e-02 2.054634e-02 1.849563e-02 2.141167e-02 4.091097e-05 1.935569e-02 2.644320e-02 2.644416e-02 4.851352e-02 4.848412e-02 6.130335e-02 
    15.5                2.129382e-02 2.125751e-02 2.238016e-02 2.018526e-02 2.165187e-02 4.763994e-05 2.110137e-02 2.962807e-02 2.962835e-02 5.181010e-02 5.181294e-02 6.685472e-02 
    16.5                2.301977e-02 2.297401e-02 2.436619e-02 2.169836e-02 2.182885e-02 5.473256e-05 2.280585e-02 3.264599e-02 3.264531e-02 5.510265e-02 5.502648e-02 7.229968e-02 
    17.5                2.446533e-02 2.441739e-02 2.584987e-02 2.317217e-02 2.152620e-02 6.134571e-05 2.422950e-02 3.537557e-02 3.537630e-02 5.756094e-02 5.745509e-02 7.689275e-02 
    18.5                2.578872e-02 2.573969e-02 2.723105e-02 2.427982e-02 2.094556e-02 6.794683e-05 2.554105e-02 3.783952e-02 3.783832e-02 5.945730e-02 5.948213e-02 8.092781e-02 
    19.5                2.685915e-02 2.680066e-02 2.855318e-02 2.522119e-02 2.045210e-02 7.576974e-05 2.659164e-02 3.991147e-02 3.991158e-02 6.126549e-02 6.115095e-02 8.437666e-02 
    20.5                2.766351e-02 2.760372e-02 2.936124e-02 2.606242e-02 1.959818e-02 8.384218e-05 2.738404e-02 4.146101e-02 4.146263e-02 6.231936e-02 6.218346e-02 8.693590e-02 
    21.5                2.862575e-02 2.857464e-02 3.006934e-02 2.723743e-02 1.874746e-02 9.250561e-05 2.834248e-02 4.312928e-02 4.312919e-02 6.357502e-02 6.349366e-02 8.993137e-02 
    22.5                2.963964e-02 2.958077e-02 3.120306e-02 2.796460e-02 1.825781e-02 9.993098e-05 2.934864e-02 4.478917e-02 4.478886e-02 6.508460e-02 6.513107e-02 9.298123e-02 
    23.5                3.021761e-02 3.015238e-02 3.209204e-02 2.835790e-02 1.736790e-02 1.064610e-04 2.991462e-02 4.578465e-02 4.578552e-02 6.578000e-02 6.570288e-02 9.488829e-02 
    24.5                3.050092e-02 3.043525e-02 3.237719e-02 2.864272e-02 1.636210e-02 1.129089e-04 3.019495e-02 4.625671e-02 4.625718e-02 6.581018e-02 6.573651e-02 9.578268e-02 
    25.5                3.068642e-02 3.061422e-02 3.263393e-02 2.868830e-02 1.521991e-02 1.198293e-04 3.038146e-02 4.648071e-02 4.648180e-02 6.555862e-02 6.553693e-02 9.630717e-02 
    26.5                3.045469e-02 3.037304e-02 3.269597e-02 2.814332e-02 1.401913e-02 1.255459e-04 3.014976e-02 4.607258e-02 4.607236e-02 6.455527e-02 6.455568e-02 9.555655e-02 
    27.5                2.984072e-02 2.975787e-02 3.218888e-02 2.758879e-02 1.278915e-02 1.296567e-04 2.953677e-02 4.511246e-02 4.511415e-02 6.301451e-02 6.284346e-02 9.375713e-02 
    28.5                2.913975e-02 2.905776e-02 3.136718e-02 2.686155e-02 1.160636e-02 1.333439e-04 2.885089e-02 4.386923e-02 4.386977e-02 6.103706e-02 6.101690e-02 9.143932e-02 
    29.5                2.822936e-02 2.814384e-02 3.061298e-02 2.583551e-02 1.043148e-02 1.373021e-04 2.794883e-02 4.236797e-02 4.236884e-02 5.885427e-02 5.877960e-02 8.860657e-02 
    30.5                2.703952e-02 2.695279e-02 2.945473e-02 2.461193e-02 9.237679e-03 1.394812e-04 2.677117e-02 4.041883e-02 4.042022e-02 5.608533e-02 5.601907e-02 8.486827e-02 
    31.5                2.567180e-02 2.558398e-02 2.811483e-02 2.324243e-02 8.021756e-03 1.409141e-04 2.541695e-02 3.818719e-02 3.818742e-02 5.301159e-02 5.291671e-02 8.059086e-02 
    32.5                2.409173e-02 2.400105e-02 2.656560e-02 2.155152e-02 6.865092e-03 1.407467e-04 2.385456e-02 3.557745e-02 3.557913e-02 4.945216e-02 4.943858e-02 7.556330e-02 
    33.5                2.217774e-02 2.208070e-02 2.481866e-02 1.952862e-02 5.812799e-03 1.374048e-04 2.195442e-02 3.253600e-02 3.253580e-02 4.541958e-02 4.533796e-02 6.959029e-02 
    34.5                2.006377e-02 1.997492e-02 2.261605e-02 1.756051e-02 4.836269e-03 1.319691e-04 1.986223e-02 2.924305e-02 2.924310e-02 4.102416e-02 4.089104e-02 6.300054e-02 
    35.5                1.795903e-02 1.787225e-02 2.037740e-02 1.559422e-02 3.920149e-03 1.262035e-04 1.777782e-02 2.597602e-02 2.597692e-02 3.661722e-02 3.648434e-02 5.639415e-02 
    36.5                1.588641e-02 1.580589e-02 1.814488e-02 1.364557e-02 3.090130e-03 1.201101e-04 1.572837e-02 2.277040e-02 2.277002e-02 3.226373e-02 3.217272e-02 4.985851e-02 
    37.5                1.382113e-02 1.374367e-02 1.599211e-02 1.168266e-02 2.388169e-03 1.123495e-04 1.368117e-02 1.963245e-02 1.963335e-02 2.801483e-02 2.791130e-02 4.338372e-02 
    38.5                1.174716e-02 1.167359e-02 1.378650e-02 9.724884e-03 1.794181e-03 1.024601e-04 1.162680e-02 1.652255e-02 1.652279e-02 2.374779e-02 2.366172e-02 3.686030e-02 
    39.5                9.685424e-03 9.616894e-03 1.162330e-02 7.777997e-03 1.295770e-03 9.110780e-05 9.583239e-03 1.348463e-02 1.348392e-02 1.955746e-02 1.946316e-02 3.039681e-02 
    40.5                7.656338e-03 7.592807e-03 9.443157e-03 5.921252e-03 8.890180e-04 7.749369e-05 7.571197e-03 1.055053e-02 1.055050e-02 1.546219e-02 1.535085e-02 2.404381e-02 
    41.5                5.788667e-03 5.735774e-03 7.337480e-03 4.346395e-03 5.770185e-04 6.339348e-05 5.720476e-03 7.911704e-03 7.910556e-03 1.174140e-02 1.158523e-02 1.822755e-02 
    42.5                4.198648e-03 4.156257e-03 5.439784e-03 3.032150e-03 3.534462e-04 4.950438e-05 4.147616e-03 5.672782e-03 5.671927e-03 8.503787e-03 8.389207e-03 1.321598e-02 
    43.5                2.860740e-03 2.825354e-03 3.882093e-03 1.897908e-03 2.031228e-04 3.613650e-05 2.822943e-03 3.821406e-03 3.821162e-03 5.796625e-03 5.704279e-03 9.005837e-03 
    44.5                1.752012e-03 1.726171e-03 2.553013e-03 1.036535e-03 1.057693e-04 2.388244e-05 1.725197e-03 2.328975e-03 2.328436e-03 3.597282e-03 3.487040e-03 5.550945e-03 
    45.5                9.240586e-04 9.067484e-04 1.475800e-03 4.507966e-04 4.794586e-05 1.351509e-05 9.071106e-04 1.224820e-03 1.224133e-03 1.929724e-03 1.834598e-03 2.950859e-03 
    46.5                3.880202e-04 3.788468e-04 7.097852e-04 1.393880e-04 1.810697e-05 6.164310e-06 3.786561e-04 5.213155e-04 5.212146e-04 8.502298e-04 7.682663e-04 1.269006e-03 
    47.5                1.185791e-04 1.151735e-04 2.505342e-04 2.898267e-05 5.193829e-06 2.117432e-06 1.146814e-04 1.640565e-04 1.640030e-04 2.797812e-04 2.341646e-04 4.031867e-04 
    48.5                2.485031e-05 2.398874e-05 6.208421e-05 2.898603e-06 1.053414e-06 5.154612e-07 2.375627e-05 3.604198e-05 3.604601e-05 6.502935e-05 4.892602e-05 8.940780e-05 
    49.5                2.801684e-06 2.686147e-06 8.821585e-06 4.258941e-08 1.257574e-07 7.133586e-08 2.614802e-06 4.515786e-06 4.512512e-06 8.868388e-06 5.499533e-06 1.126295e-05 
    50.5                5.782917e-08 5.484144e-08 2.618801e-07 0.000000e+00 3.169863e-09 2.100211e-09 5.129605e-08 1.194714e-07 1.171641e-07 2.619495e-07 1.130470e-07 2.963596e-07 
    51.5                0.000000e+00 0.000000e+00 0.000000e+00 0.000000e+00 0.000000e+00 0.000000e+00 0.000000e+00 0.000000e+00 0.000000e+00 0.000000e+00 0.000000e+00 0.000000e+00 
    52.5                0.000000e+00 0.000000e+00 0.000000e+00 0.000000e+00 0.000000e+00 0.000000e+00 0.000000e+00 0.000000e+00 0.000000e+00 0.000000e+00 0.000000e+00 0.000000e+00 
    53.5                0.000000e+00 0.000000e+00 0.000000e+00 0.000000e+00 0.000000e+00 0.000000e+00 0.000000e+00 0.000000e+00 0.000000e+00 0.000000e+00 0.000000e+00 0.000000e+00 
    54.5                0.000000e+00 0.000000e+00 0.000000e+00 0.000000e+00 0.000000e+00 0.000000e+00 0.000000e+00 0.000000e+00 0.000000e+00 0.000000e+00 0.000000e+00 0.000000e+00 
    55.5                0.000000e+00 0.000000e+00 0.000000e+00 0.000000e+00 0.000000e+00 0.000000e+00 0.000000e+00 0.000000e+00 0.000000e+00 0.000000e+00 0.000000e+00 0.000000e+00 
    56.5                0.000000e+00 0.000000e+00 0.000000e+00 0.000000e+00 0.000000e+00 0.000000e+00 0.000000e+00 0.000000e+00 0.000000e+00 0.000000e+00 0.000000e+00 0.000000e+00 
    57.5                0.000000e+00 0.000000e+00 0.000000e+00 0.000000e+00 0.000000e+00 0.000000e+00 0.000000e+00 0.000000e+00 0.000000e+00 0.000000e+00 0.000000e+00 0.000000e+00 
    58.5                0.000000e+00 0.000000e+00 0.000000e+00 0.000000e+00 0.000000e+00 0.000000e+00 0.000000e+00 0.000000e+00 0.000000e+00 0.000000e+00 0.000000e+00 0.000000e+00 
    59.5                0.000000e+00 0.000000e+00 0.000000e+00 0.000000e+00 0.000000e+00 0.000000e+00 0.000000e+00 0.000000e+00 0.000000e+00 0.000000e+00 0.000000e+00 0.000000e+00 
    60.5                0.000000e+00 0.000000e+00 0.000000e+00 0.000000e+00 0.000000e+00 0.000000e+00 0.000000e+00 0.000000e+00 0.000000e+00 0.000000e+00 0.000000e+00 0.000000e+00 
    61.5                0.000000e+00 0.000000e+00 0.000000e+00 0.000000e+00 0.000000e+00 0.000000e+00 0.000000e+00 0.000000e+00 0.000000e+00 0.000000e+00 0.000000e+00 0.000000e+00 
    62.5                0.000000e+00 0.000000e+00 0.000000e+00 0.000000e+00 0.000000e+00 0.000000e+00 0.000000e+00 0.000000e+00 0.000000e+00 0.000000e+00 0.000000e+00 0.000000e+00 
    63.5                0.000000e+00 0.000000e+00 0.000000e+00 0.000000e+00 0.000000e+00 0.000000e+00 0.000000e+00 0.000000e+00 0.000000e+00 0.000000e+00 0.000000e+00 0.000000e+00 
    64.5                0.000000e+00 0.000000e+00 0.000000e+00 0.000000e+00 0.000000e+00 0.000000e+00 0.000000e+00 0.000000e+00 0.000000e+00 0.000000e+00 0.000000e+00 0.000000e+00 
    65.5                0.000000e+00 0.000000e+00 0.000000e+00 0.000000e+00 0.000000e+00 0.000000e+00 0.000000e+00 0.000000e+00 0.000000e+00 0.000000e+00 0.000000e+00 0.000000e+00 
    66.5                0.000000e+00 0.000000e+00 0.000000e+00 0.000000e+00 0.000000e+00 0.000000e+00 0.000000e+00 0.000000e+00 0.000000e+00 0.000000e+00 0.000000e+00 0.000000e+00 
    67.5                0.000000e+00 0.000000e+00 0.000000e+00 0.000000e+00 0.000000e+00 0.000000e+00 0.000000e+00 0.000000e+00 0.000000e+00 0.000000e+00 0.000000e+00 0.000000e+00 
    68.5                0.000000e+00 0.000000e+00 0.000000e+00 0.000000e+00 0.000000e+00 0.000000e+00 0.000000e+00 0.000000e+00 0.000000e+00 0.000000e+00 0.000000e+00 0.000000e+00 
    69.5                0.000000e+00 0.000000e+00 0.000000e+00 0.000000e+00 0.000000e+00 0.000000e+00 0.000000e+00 0.000000e+00 0.000000e+00 0.000000e+00 0.000000e+00 0.000000e+00 
    70.5                0.000000e+00 0.000000e+00 0.000000e+00 0.000000e+00 0.000000e+00 0.000000e+00 0.000000e+00 0.000000e+00 0.000000e+00 0.000000e+00 0.000000e+00 0.000000e+00 
    71.5                0.000000e+00 0.000000e+00 0.000000e+00 0.000000e+00 0.000000e+00 0.000000e+00 0.000000e+00 0.000000e+00 0.000000e+00 0.000000e+00 0.000000e+00 0.000000e+00 
    72.5                0.000000e+00 0.000000e+00 0.000000e+00 0.000000e+00 0.000000e+00 0.000000e+00 0.000000e+00 0.000000e+00 0.000000e+00 0.000000e+00 0.000000e+00 0.000000e+00 
    73.5                0.000000e+00 0.000000e+00 0.000000e+00 0.000000e+00 0.000000e+00 0.000000e+00 0.000000e+00 0.000000e+00 0.000000e+00 0.000000e+00 0.000000e+00 0.000000e+00 
    74.5                0.000000e+00 0.000000e+00 0.000000e+00 0.000000e+00 0.000000e+00 0.000000e+00 0.000000e+00 0.000000e+00 0.000000e+00 0.000000e+00 0.000000e+00 0.000000e+00 
    75.5                0.000000e+00 0.000000e+00 0.000000e+00 0.000000e+00 0.000000e+00 0.000000e+00 0.000000e+00 0.000000e+00 0.000000e+00 0.000000e+00 0.000000e+00 0.000000e+00 
    76.5                0.000000e+00 0.000000e+00 0.000000e+00 0.000000e+00 0.000000e+00 0.000000e+00 0.000000e+00 0.000000e+00 0.000000e+00 0.000000e+00 0.000000e+00 0.000000e+00 
    77.5                0.000000e+00 0.000000e+00 0.000000e+00 0.000000e+00 0.000000e+00 0.000000e+00 0.000000e+00 0.000000e+00 0.000000e+00 0.000000e+00 0.000000e+00 0.000000e+00 
    78.5                0.000000e+00 0.000000e+00 0.000000e+00 0.000000e+00 0.000000e+00 0.000000e+00 0.000000e+00 0.000000e+00 0.000000e+00 0.000000e+00 0.000000e+00 0.000000e+00 
    79.5                0.000000e+00 0.000000e+00 0.000000e+00 0.000000e+00 0.000000e+00 0.000000e+00 0.000000e+00 0.000000e+00 0.000000e+00 0.000000e+00 0.000000e+00 0.000000e+00 


