# 80 rows of flux data
# 12 columns of flux data
# 
# total cross-sectional flux  2.022894e+00 /m^2/yr
#
#                             +x ram      -x wake      +y port -y starboard    +z zenith     -z nadir        Earth          Sun     anti-Sun      rot (x)      rot (y)      rot (z) 
# average speed (km/s)         23.99        23.99        18.18        21.89        23.84        23.61        23.98        24.29        24.29        23.19        23.92        23.42 
# total flux (#/m2/yr)  6.305514e-01 6.300507e-01 1.410081e-01 3.211575e-01 1.173832e+00 4.992941e-04 6.237034e-01 8.854765e-01 8.851600e-01 1.342988e+00 1.921144e+00 1.429197e+00 
# velocity (km/s)
     0.5                0.000000e+00 0.000000e+00 0.000000e+00 0.000000e+00 0.000000e+00 0.000000e+00 0.000000e+00 0.000000e+00 0.000000e+00 0.000000e+00 0.000000e+00 0.000000e+00 
     1.5                0.000000e+00 0.000000e+00 0.000000e+00 0.000000e+00 0.000000e+00 0.000000e+00 0.000000e+00 0.000000e+00 0.000000e+00 0.000000e+00 0.000000e+00 0.000000e+00 
     2.5                9.140881e-07 9.575763e-07 9.863430e-08 8.702462e-07 5.741953e-06 0.000000e+00 9.506773e-07 7.252452e-07 7.108304e-07 5.861799e-06 6.178432e-06 2.295376e-06 
     3.5                7.462322e-05 7.598661e-05 1.928130e-05 4.670367e-05 1.973400e-04 1.624638e-08 7.556799e-05 5.686730e-05 5.679615e-05 2.157574e-04 2.718822e-04 1.778700e-04 
     4.5                4.098125e-04 4.125622e-04 1.593644e-04 2.985659e-04 9.726808e-04 1.792964e-07 4.099208e-04 3.268877e-04 3.263089e-04 1.139000e-03 1.407541e-03 1.023492e-03 
     5.5                1.315201e-03 1.319747e-03 6.158836e-04 9.937399e-04 2.756069e-03 7.909365e-07 1.312321e-03 1.144963e-03 1.143350e-03 3.435163e-03 4.236157e-03 3.358671e-03 
     6.5                2.597604e-03 2.599318e-03 1.290874e-03 1.977079e-03 5.228248e-03 1.880643e-06 2.584597e-03 2.360984e-03 2.358653e-03 6.685413e-03 8.211545e-03 6.668834e-03 
     7.5                4.607093e-03 4.612283e-03 2.382954e-03 3.588257e-03 9.318399e-03 3.427938e-06 4.586997e-03 4.306327e-03 4.303064e-03 1.203525e-02 1.459208e-02 1.196611e-02 
     8.5                7.174243e-03 7.175576e-03 3.563163e-03 5.356860e-03 1.394674e-02 5.648436e-06 7.135127e-03 6.882382e-03 6.879898e-03 1.797192e-02 2.228792e-02 1.831996e-02 
     9.5                9.465319e-03 9.463174e-03 4.984035e-03 7.202265e-03 1.781646e-02 8.123011e-06 9.404508e-03 9.786501e-03 9.783473e-03 2.352612e-02 2.899394e-02 2.444231e-02 
    10.5                1.147776e-02 1.147357e-02 6.277559e-03 8.866265e-03 2.169113e-02 1.014008e-05 1.139249e-02 1.296839e-02 1.296445e-02 2.895042e-02 3.522372e-02 2.993084e-02 
    11.5                1.342989e-02 1.341652e-02 7.341129e-03 1.015560e-02 2.494012e-02 1.240042e-05 1.331604e-02 1.596954e-02 1.596396e-02 3.346177e-02 4.087561e-02 3.489537e-02 
    12.5                1.465617e-02 1.464347e-02 7.879534e-03 1.097862e-02 2.734406e-02 1.363710e-05 1.452178e-02 1.849105e-02 1.848534e-02 3.653137e-02 4.472586e-02 3.804502e-02 
    13.5                1.643437e-02 1.642774e-02 8.349338e-03 1.197694e-02 3.103766e-02 1.490579e-05 1.628254e-02 2.158116e-02 2.157297e-02 4.075355e-02 5.040578e-02 4.214987e-02 
    14.5                1.816229e-02 1.815015e-02 8.464697e-03 1.258580e-02 3.425137e-02 1.640510e-05 1.798073e-02 2.453127e-02 2.452362e-02 4.403862e-02 5.568005e-02 4.563350e-02 
    15.5                1.979071e-02 1.977632e-02 8.386824e-03 1.308699e-02 3.720515e-02 1.744102e-05 1.958473e-02 2.739850e-02 2.738881e-02 4.687981e-02 6.057663e-02 4.883053e-02 
    16.5                2.122568e-02 2.121210e-02 8.195227e-03 1.343585e-02 3.986141e-02 1.832888e-05 2.099958e-02 2.983549e-02 2.982466e-02 4.932081e-02 6.493274e-02 5.147352e-02 
    17.5                2.251169e-02 2.249862e-02 7.790248e-03 1.364889e-02 4.241197e-02 1.887939e-05 2.226511e-02 3.232707e-02 3.231618e-02 5.138765e-02 6.897603e-02 5.363948e-02 
    18.5                2.362440e-02 2.360604e-02 7.362962e-03 1.369417e-02 4.427202e-02 1.942063e-05 2.335704e-02 3.428892e-02 3.427639e-02 5.272880e-02 7.219390e-02 5.537278e-02 
    19.5                2.434060e-02 2.432514e-02 7.006336e-03 1.368657e-02 4.565838e-02 1.975937e-05 2.406441e-02 3.569025e-02 3.567803e-02 5.372844e-02 7.442800e-02 5.645568e-02 
    20.5                2.495926e-02 2.494667e-02 6.433220e-03 1.347511e-02 4.691681e-02 1.988250e-05 2.467368e-02 3.684951e-02 3.683693e-02 5.435404e-02 7.638877e-02 5.713642e-02 
    21.5                2.589227e-02 2.587921e-02 5.972281e-03 1.355639e-02 4.882183e-02 1.997498e-05 2.559220e-02 3.849162e-02 3.847778e-02 5.577391e-02 7.934723e-02 5.860966e-02 
    22.5                2.664819e-02 2.663119e-02 5.658190e-03 1.348226e-02 5.002249e-02 2.050398e-05 2.633591e-02 3.967991e-02 3.966706e-02 5.662955e-02 8.149548e-02 5.978754e-02 
    23.5                2.691796e-02 2.690066e-02 5.088633e-03 1.317089e-02 5.047079e-02 2.051507e-05 2.660115e-02 4.008159e-02 4.006791e-02 5.647744e-02 8.227676e-02 5.977003e-02 
    24.5                2.704422e-02 2.702736e-02 4.582164e-03 1.282751e-02 5.071249e-02 2.040164e-05 2.672599e-02 4.026180e-02 4.024708e-02 5.620104e-02 8.266576e-02 5.956964e-02 
    25.5                2.699704e-02 2.697866e-02 4.022385e-03 1.233833e-02 5.048020e-02 2.019675e-05 2.667920e-02 4.010555e-02 4.009108e-02 5.539066e-02 8.241160e-02 5.893727e-02 
    26.5                2.642602e-02 2.640505e-02 3.532145e-03 1.171341e-02 4.921034e-02 1.981599e-05 2.611393e-02 3.912157e-02 3.910778e-02 5.360689e-02 8.052337e-02 5.733854e-02 
    27.5                2.570438e-02 2.568532e-02 3.049857e-03 1.108532e-02 4.795515e-02 1.910155e-05 2.540210e-02 3.799089e-02 3.797822e-02 5.184898e-02 7.838694e-02 5.544745e-02 
    28.5                2.492120e-02 2.490157e-02 2.645637e-03 1.045827e-02 4.634392e-02 1.848687e-05 2.462983e-02 3.665039e-02 3.663645e-02 4.980739e-02 7.588031e-02 5.349996e-02 
    29.5                2.381047e-02 2.379067e-02 2.236658e-03 9.727842e-03 4.418909e-02 1.765460e-05 2.353309e-02 3.485402e-02 3.484088e-02 4.721511e-02 7.243520e-02 5.086357e-02 
    30.5                2.256379e-02 2.254424e-02 1.843275e-03 8.965767e-03 4.179082e-02 1.671179e-05 2.230306e-02 3.284108e-02 3.283093e-02 4.438826e-02 6.857926e-02 4.797831e-02 
    31.5                2.111257e-02 2.109265e-02 1.480473e-03 8.155769e-03 3.898429e-02 1.565402e-05 2.086990e-02 3.050782e-02 3.049692e-02 4.117928e-02 6.408060e-02 4.470126e-02 
    32.5                1.946031e-02 1.943923e-02 1.176504e-03 7.323034e-03 3.575386e-02 1.448701e-05 1.923797e-02 2.785813e-02 2.784842e-02 3.759295e-02 5.892981e-02 4.105644e-02 
    33.5                1.755889e-02 1.753817e-02 9.299793e-04 6.467379e-03 3.211826e-02 1.316319e-05 1.735964e-02 2.491099e-02 2.490106e-02 3.365101e-02 5.306655e-02 3.694375e-02 
    34.5                1.563422e-02 1.561472e-02 7.134816e-04 5.636709e-03 2.848434e-02 1.174837e-05 1.545888e-02 2.198080e-02 2.197252e-02 2.973758e-02 4.716466e-02 3.280598e-02 
    35.5                1.368576e-02 1.366852e-02 5.234840e-04 4.831980e-03 2.486118e-02 1.032071e-05 1.353445e-02 1.905574e-02 1.904867e-02 2.585706e-02 4.123681e-02 2.864556e-02 
    36.5                1.181916e-02 1.180348e-02 3.717461e-04 4.081244e-03 2.135041e-02 8.958228e-06 1.169074e-02 1.626533e-02 1.626061e-02 2.212720e-02 3.551779e-02 2.467698e-02 
    37.5                9.982967e-03 9.967488e-03 2.583049e-04 3.382485e-03 1.794349e-02 7.606409e-06 9.874359e-03 1.358113e-02 1.357601e-02 1.854098e-02 2.993294e-02 2.080097e-02 
    38.5                8.206882e-03 8.191635e-03 1.728215e-04 2.717551e-03 1.459074e-02 6.337184e-06 8.117710e-03 1.099752e-02 1.099348e-02 1.503659e-02 2.448642e-02 1.706159e-02 
    39.5                6.462824e-03 6.449457e-03 1.090952e-04 2.091076e-03 1.134670e-02 5.090470e-06 6.393472e-03 8.517811e-03 8.514221e-03 1.166569e-02 1.917718e-02 1.340909e-02 
    40.5                4.849808e-03 4.838318e-03 6.552222e-05 1.532861e-03 8.390686e-03 3.900930e-06 4.798131e-03 6.281912e-03 6.279471e-03 8.609114e-03 1.429990e-02 1.004370e-02 
    41.5                3.462576e-03 3.454141e-03 3.678482e-05 1.073376e-03 5.921213e-03 2.838949e-06 3.426468e-03 4.412942e-03 4.411078e-03 6.063960e-03 1.015947e-02 7.160644e-03 
    42.5                2.358081e-03 2.351201e-03 1.973282e-05 7.126586e-04 3.954858e-03 1.976367e-06 2.333355e-03 2.944108e-03 2.943389e-03 4.044064e-03 6.860475e-03 4.867870e-03 
    43.5                1.466647e-03 1.461474e-03 9.789277e-06 4.253240e-04 2.371054e-03 1.289980e-06 1.451182e-03 1.781942e-03 1.781055e-03 2.421919e-03 4.202028e-03 3.020160e-03 
    44.5                7.998683e-04 7.959749e-04 4.218524e-06 2.207084e-04 1.235089e-03 7.433150e-07 7.908747e-04 9.419012e-04 9.414733e-04 1.260433e-03 2.248617e-03 1.642022e-03 
    45.5                3.598201e-04 3.576961e-04 1.591206e-06 9.152902e-05 5.133743e-04 3.675130e-07 3.557186e-04 4.063481e-04 4.059857e-04 5.237055e-04 9.807180e-04 7.357028e-04 
    46.5                1.175579e-04 1.166280e-04 4.824510e-07 2.689729e-05 1.509557e-04 1.389758e-07 1.160842e-04 1.264899e-04 1.265025e-04 1.540159e-04 3.089195e-04 2.392387e-04 
    47.5                2.680527e-05 2.655564e-05 1.002756e-07 5.277630e-06 2.963821e-05 3.647096e-08 2.645206e-05 2.721022e-05 2.717848e-05 3.025164e-05 6.708229e-05 5.424871e-05 
    48.5                3.419809e-06 3.388365e-06 1.385397e-08 4.837430e-07 2.706859e-06 5.744059e-09 3.378541e-06 3.136300e-06 3.141246e-06 2.769877e-06 7.802327e-06 6.862672e-06 
    49.5                7.870155e-08 7.688333e-08 4.559721e-10 4.568599e-09 2.430987e-08 2.069983e-10 7.669001e-08 6.299730e-08 6.388863e-08 2.539210e-08 1.587037e-07 1.557114e-07 
    50.5                0.000000e+00 0.000000e+00 0.000000e+00 0.000000e+00 0.000000e+00 0.000000e+00 0.000000e+00 0.000000e+00 0.000000e+00 0.000000e+00 0.000000e+00 0.000000e+00 
    51.5                0.000000e+00 0.000000e+00 0.000000e+00 0.000000e+00 0.000000e+00 0.000000e+00 0.000000e+00 0.000000e+00 0.000000e+00 0.000000e+00 0.000000e+00 0.000000e+00 
    52.5                0.000000e+00 0.000000e+00 0.000000e+00 0.000000e+00 0.000000e+00 0.000000e+00 0.000000e+00 0.000000e+00 0.000000e+00 0.000000e+00 0.000000e+00 0.000000e+00 
    53.5                0.000000e+00 0.000000e+00 0.000000e+00 0.000000e+00 0.000000e+00 0.000000e+00 0.000000e+00 0.000000e+00 0.000000e+00 0.000000e+00 0.000000e+00 0.000000e+00 
    54.5                0.000000e+00 0.000000e+00 0.000000e+00 0.000000e+00 0.000000e+00 0.000000e+00 0.000000e+00 0.000000e+00 0.000000e+00 0.000000e+00 0.000000e+00 0.000000e+00 
    55.5                0.000000e+00 0.000000e+00 0.000000e+00 0.000000e+00 0.000000e+00 0.000000e+00 0.000000e+00 0.000000e+00 0.000000e+00 0.000000e+00 0.000000e+00 0.000000e+00 
    56.5                0.000000e+00 0.000000e+00 0.000000e+00 0.000000e+00 0.000000e+00 0.000000e+00 0.000000e+00 0.000000e+00 0.000000e+00 0.000000e+00 0.000000e+00 0.000000e+00 
    57.5                0.000000e+00 0.000000e+00 0.000000e+00 0.000000e+00 0.000000e+00 0.000000e+00 0.000000e+00 0.000000e+00 0.000000e+00 0.000000e+00 0.000000e+00 0.000000e+00 
    58.5                0.000000e+00 0.000000e+00 0.000000e+00 0.000000e+00 0.000000e+00 0.000000e+00 0.000000e+00 0.000000e+00 0.000000e+00 0.000000e+00 0.000000e+00 0.000000e+00 
    59.5                0.000000e+00 0.000000e+00 0.000000e+00 0.000000e+00 0.000000e+00 0.000000e+00 0.000000e+00 0.000000e+00 0.000000e+00 0.000000e+00 0.000000e+00 0.000000e+00 
    60.5                0.000000e+00 0.000000e+00 0.000000e+00 0.000000e+00 0.000000e+00 0.000000e+00 0.000000e+00 0.000000e+00 0.000000e+00 0.000000e+00 0.000000e+00 0.000000e+00 
    61.5                0.000000e+00 0.000000e+00 0.000000e+00 0.000000e+00 0.000000e+00 0.000000e+00 0.000000e+00 0.000000e+00 0.000000e+00 0.000000e+00 0.000000e+00 0.000000e+00 
    62.5                0.000000e+00 0.000000e+00 0.000000e+00 0.000000e+00 0.000000e+00 0.000000e+00 0.000000e+00 0.000000e+00 0.000000e+00 0.000000e+00 0.000000e+00 0.000000e+00 
    63.5                0.000000e+00 0.000000e+00 0.000000e+00 0.000000e+00 0.000000e+00 0.000000e+00 0.000000e+00 0.000000e+00 0.000000e+00 0.000000e+00 0.000000e+00 0.000000e+00 
    64.5                0.000000e+00 0.000000e+00 0.000000e+00 0.000000e+00 0.000000e+00 0.000000e+00 0.000000e+00 0.000000e+00 0.000000e+00 0.000000e+00 0.000000e+00 0.000000e+00 
    65.5                0.000000e+00 0.000000e+00 0.000000e+00 0.000000e+00 0.000000e+00 0.000000e+00 0.000000e+00 0.000000e+00 0.000000e+00 0.000000e+00 0.000000e+00 0.000000e+00 
    66.5                0.000000e+00 0.000000e+00 0.000000e+00 0.000000e+00 0.000000e+00 0.000000e+00 0.000000e+00 0.000000e+00 0.000000e+00 0.000000e+00 0.000000e+00 0.000000e+00 
    67.5                0.000000e+00 0.000000e+00 0.000000e+00 0.000000e+00 0.000000e+00 0.000000e+00 0.000000e+00 0.000000e+00 0.000000e+00 0.000000e+00 0.000000e+00 0.000000e+00 
    68.5                0.000000e+00 0.000000e+00 0.000000e+00 0.000000e+00 0.000000e+00 0.000000e+00 0.000000e+00 0.000000e+00 0.000000e+00 0.000000e+00 0.000000e+00 0.000000e+00 
    69.5                0.000000e+00 0.000000e+00 0.000000e+00 0.000000e+00 0.000000e+00 0.000000e+00 0.000000e+00 0.000000e+00 0.000000e+00 0.000000e+00 0.000000e+00 0.000000e+00 
    70.5                0.000000e+00 0.000000e+00 0.000000e+00 0.000000e+00 0.000000e+00 0.000000e+00 0.000000e+00 0.000000e+00 0.000000e+00 0.000000e+00 0.000000e+00 0.000000e+00 
    71.5                0.000000e+00 0.000000e+00 0.000000e+00 0.000000e+00 0.000000e+00 0.000000e+00 0.000000e+00 0.000000e+00 0.000000e+00 0.000000e+00 0.000000e+00 0.000000e+00 
    72.5                0.000000e+00 0.000000e+00 0.000000e+00 0.000000e+00 0.000000e+00 0.000000e+00 0.000000e+00 0.000000e+00 0.000000e+00 0.000000e+00 0.000000e+00 0.000000e+00 
    73.5                0.000000e+00 0.000000e+00 0.000000e+00 0.000000e+00 0.000000e+00 0.000000e+00 0.000000e+00 0.000000e+00 0.000000e+00 0.000000e+00 0.000000e+00 0.000000e+00 
    74.5                0.000000e+00 0.000000e+00 0.000000e+00 0.000000e+00 0.000000e+00 0.000000e+00 0.000000e+00 0.000000e+00 0.000000e+00 0.000000e+00 0.000000e+00 0.000000e+00 
    75.5                0.000000e+00 0.000000e+00 0.000000e+00 0.000000e+00 0.000000e+00 0.000000e+00 0.000000e+00 0.000000e+00 0.000000e+00 0.000000e+00 0.000000e+00 0.000000e+00 
    76.5                0.000000e+00 0.000000e+00 0.000000e+00 0.000000e+00 0.000000e+00 0.000000e+00 0.000000e+00 0.000000e+00 0.000000e+00 0.000000e+00 0.000000e+00 0.000000e+00 
    77.5                0.000000e+00 0.000000e+00 0.000000e+00 0.000000e+00 0.000000e+00 0.000000e+00 0.000000e+00 0.000000e+00 0.000000e+00 0.000000e+00 0.000000e+00 0.000000e+00 
    78.5                0.000000e+00 0.000000e+00 0.000000e+00 0.000000e+00 0.000000e+00 0.000000e+00 0.000000e+00 0.000000e+00 0.000000e+00 0.000000e+00 0.000000e+00 0.000000e+00 
    79.5                0.000000e+00 0.000000e+00 0.000000e+00 0.000000e+00 0.000000e+00 0.000000e+00 0.000000e+00 0.000000e+00 0.000000e+00 0.000000e+00 0.000000e+00 0.000000e+00 


