# 80 rows of flux data
# 12 columns of flux data
# 
# total cross-sectional flux  2.237825e+00 /m^2/yr
#
#                             +x ram      -x wake      +y port -y starboard    +z zenith     -z nadir        Earth          Sun     anti-Sun      rot (x)      rot (y)      rot (z) 
# average speed (km/s)         24.30        24.30        25.04        21.86        20.86        26.48        24.30        24.54        24.54        23.41        23.75        24.16 
# total flux (#/m2/yr)  6.960019e-01 6.958918e-01 8.894036e-01 4.356212e-01 4.708937e-01 2.170839e-03 6.904331e-01 9.803972e-01 9.802462e-01 1.490544e+00 1.563993e+00 2.135168e+00 
# velocity (km/s)
     0.5                0.000000e+00 0.000000e+00 0.000000e+00 0.000000e+00 0.000000e+00 0.000000e+00 0.000000e+00 0.000000e+00 0.000000e+00 0.000000e+00 0.000000e+00 0.000000e+00 
     1.5                0.000000e+00 0.000000e+00 0.000000e+00 0.000000e+00 0.000000e+00 0.000000e+00 0.000000e+00 0.000000e+00 0.000000e+00 0.000000e+00 0.000000e+00 0.000000e+00 
     2.5                1.091585e-06 1.124024e-06 5.228040e-06 0.000000e+00 3.032353e-06 0.000000e+00 1.116312e-06 8.261363e-07 8.156163e-07 6.114192e-06 3.968509e-06 5.889124e-06 
     3.5                7.633088e-05 7.680696e-05 1.548882e-04 6.309692e-06 9.278633e-05 3.830208e-08 7.656894e-05 5.563156e-05 5.568403e-05 1.965899e-04 1.943037e-04 2.474812e-04 
     4.5                4.031197e-04 4.036477e-04 6.764385e-04 1.447278e-04 4.549324e-04 7.204932e-07 4.021044e-04 3.082671e-04 3.080146e-04 1.012956e-03 1.011815e-03 1.278355e-03 
     5.5                1.223437e-03 1.224715e-03 1.729593e-03 5.621174e-04 1.444400e-03 2.003162e-06 1.220141e-03 1.015791e-03 1.015479e-03 2.957099e-03 3.100792e-03 3.725619e-03 
     6.5                2.581821e-03 2.582186e-03 3.208297e-03 1.763778e-03 3.065452e-03 4.109050e-06 2.572417e-03 2.264193e-03 2.263977e-03 6.377043e-03 6.529220e-03 7.959044e-03 
     7.5                4.518649e-03 4.518792e-03 5.633571e-03 3.244475e-03 5.542305e-03 7.865762e-06 4.501428e-03 4.167484e-03 4.166156e-03 1.143860e-02 1.155577e-02 1.406604e-02 
     8.5                7.122568e-03 7.123625e-03 8.269294e-03 5.420864e-03 8.502309e-03 1.250053e-05 7.094371e-03 6.754140e-03 6.753551e-03 1.755421e-02 1.803676e-02 2.193766e-02 
     9.5                9.741076e-03 9.740645e-03 1.038377e-02 8.163632e-03 1.162125e-02 1.637050e-05 9.694408e-03 9.849190e-03 9.847378e-03 2.392780e-02 2.465425e-02 2.987684e-02 
    10.5                1.208357e-02 1.208499e-02 1.266754e-02 1.101899e-02 1.483775e-02 2.100964e-05 1.202042e-02 1.331091e-02 1.331110e-02 3.058793e-02 3.086502e-02 3.758156e-02 
    11.5                1.423767e-02 1.423370e-02 1.474119e-02 1.303208e-02 1.754049e-02 2.519273e-05 1.414791e-02 1.675362e-02 1.675214e-02 3.599633e-02 3.645364e-02 4.417650e-02 
    12.5                1.577715e-02 1.577237e-02 1.636501e-02 1.475487e-02 1.920424e-02 2.959552e-05 1.566531e-02 1.978303e-02 1.978156e-02 4.005953e-02 4.036497e-02 4.923415e-02 
    13.5                1.741890e-02 1.741692e-02 1.893019e-02 1.561352e-02 2.070155e-02 3.346817e-05 1.728915e-02 2.290376e-02 2.290032e-02 4.406182e-02 4.429911e-02 5.448058e-02 
    14.5                1.932403e-02 1.932534e-02 2.131947e-02 1.683662e-02 2.165498e-02 3.930320e-05 1.917547e-02 2.615866e-02 2.615736e-02 4.784719e-02 4.832354e-02 6.032340e-02 
    15.5                2.107909e-02 2.107359e-02 2.363622e-02 1.783746e-02 2.199701e-02 4.528362e-05 2.090444e-02 2.929020e-02 2.928728e-02 5.100070e-02 5.169258e-02 6.568697e-02 
    16.5                2.276861e-02 2.276661e-02 2.596638e-02 1.886097e-02 2.225319e-02 5.164819e-05 2.257826e-02 3.223916e-02 3.223591e-02 5.417291e-02 5.490100e-02 7.096414e-02 
    17.5                2.419464e-02 2.419066e-02 2.822253e-02 1.946019e-02 2.209822e-02 5.810980e-05 2.398542e-02 3.495636e-02 3.495294e-02 5.657918e-02 5.738528e-02 7.545052e-02 
    18.5                2.544954e-02 2.544314e-02 2.996559e-02 1.977916e-02 2.163396e-02 6.395039e-05 2.522387e-02 3.724246e-02 3.723765e-02 5.810594e-02 5.935733e-02 7.903869e-02 
    19.5                2.640940e-02 2.640692e-02 3.147589e-02 2.015158e-02 2.122691e-02 6.866651e-05 2.617571e-02 3.907522e-02 3.907132e-02 5.956705e-02 6.086868e-02 8.202654e-02 
    20.5                2.716087e-02 2.715903e-02 3.311940e-02 2.003159e-02 2.054951e-02 7.373411e-05 2.691878e-02 4.047394e-02 4.046921e-02 6.050690e-02 6.186576e-02 8.441008e-02 
    21.5                2.807042e-02 2.806888e-02 3.510163e-02 1.967133e-02 1.996754e-02 7.940111e-05 2.781962e-02 4.207554e-02 4.207002e-02 6.159793e-02 6.320082e-02 8.711994e-02 
    22.5                2.895090e-02 2.894794e-02 3.649192e-02 1.967546e-02 1.958647e-02 8.509684e-05 2.869114e-02 4.347294e-02 4.346656e-02 6.265903e-02 6.464096e-02 8.960529e-02 
    23.5                2.948234e-02 2.947768e-02 3.753280e-02 1.965672e-02 1.876402e-02 8.948460e-05 2.921635e-02 4.431668e-02 4.431183e-02 6.310424e-02 6.515321e-02 9.122920e-02 
    24.5                2.973840e-02 2.973383e-02 3.841885e-02 1.918135e-02 1.789410e-02 9.360204e-05 2.947209e-02 4.468297e-02 4.467732e-02 6.299183e-02 6.518316e-02 9.195715e-02 
    25.5                2.983196e-02 2.982765e-02 3.911816e-02 1.847699e-02 1.688329e-02 9.726223e-05 2.956799e-02 4.472002e-02 4.471235e-02 6.243309e-02 6.484607e-02 9.210784e-02 
    26.5                2.942199e-02 2.941796e-02 3.884067e-02 1.765168e-02 1.571089e-02 9.999099e-05 2.916564e-02 4.393540e-02 4.392935e-02 6.080489e-02 6.352687e-02 9.060894e-02 
    27.5                2.872125e-02 2.871709e-02 3.861990e-02 1.648696e-02 1.458364e-02 1.010755e-04 2.847215e-02 4.277803e-02 4.277195e-02 5.893209e-02 6.166814e-02 8.841263e-02 
    28.5                2.795479e-02 2.795008e-02 3.800585e-02 1.530217e-02 1.348303e-02 1.012675e-04 2.771607e-02 4.139008e-02 4.138289e-02 5.669868e-02 5.972354e-02 8.579855e-02 
    29.5                2.684607e-02 2.684214e-02 3.686869e-02 1.404348e-02 1.232813e-02 1.004385e-04 2.662063e-02 3.950159e-02 3.949476e-02 5.387514e-02 5.708142e-02 8.218219e-02 
    30.5                2.558948e-02 2.558485e-02 3.558317e-02 1.276291e-02 1.116235e-02 9.782529e-05 2.537777e-02 3.741050e-02 3.740479e-02 5.089100e-02 5.416490e-02 7.819411e-02 
    31.5                2.413659e-02 2.413246e-02 3.391077e-02 1.136543e-02 9.953004e-03 9.474767e-05 2.394157e-02 3.496540e-02 3.495801e-02 4.742303e-02 5.086196e-02 7.350414e-02 
    32.5                2.234275e-02 2.233731e-02 3.165975e-02 9.785496e-03 8.758365e-03 9.048380e-05 2.216608e-02 3.198480e-02 3.197849e-02 4.323975e-02 4.691439e-02 6.769710e-02 
    33.5                2.025926e-02 2.025519e-02 2.888466e-02 8.314623e-03 7.601839e-03 8.401207e-05 2.010386e-02 2.866802e-02 2.866126e-02 3.868975e-02 4.241873e-02 6.109878e-02 
    34.5                1.814161e-02 1.813628e-02 2.605228e-02 6.959103e-03 6.526446e-03 7.603845e-05 1.800458e-02 2.537905e-02 2.537388e-02 3.422948e-02 3.788177e-02 5.447925e-02 
    35.5                1.598614e-02 1.598320e-02 2.311633e-02 5.644246e-03 5.502943e-03 6.806553e-05 1.587053e-02 2.206906e-02 2.206322e-02 2.972933e-02 3.329899e-02 4.776606e-02 
    36.5                1.385250e-02 1.384912e-02 2.015018e-02 4.358034e-03 4.565721e-03 5.941146e-05 1.375543e-02 1.881384e-02 1.880905e-02 2.526281e-02 2.878413e-02 4.108427e-02 
    37.5                1.173132e-02 1.172773e-02 1.714798e-02 3.264428e-03 3.722618e-03 5.071270e-05 1.165143e-02 1.567531e-02 1.567162e-02 2.099211e-02 2.432976e-02 3.454956e-02 
    38.5                9.677044e-03 9.673691e-03 1.409335e-02 2.362299e-03 2.949683e-03 4.200220e-05 9.613795e-03 1.267793e-02 1.267415e-02 1.688828e-02 2.002874e-02 2.822459e-02 
    39.5                7.654632e-03 7.651860e-03 1.105905e-02 1.631679e-03 2.240592e-03 3.360274e-05 7.607130e-03 9.817722e-03 9.814826e-03 1.299999e-02 1.581313e-02 2.209777e-02 
    40.5                5.762505e-03 5.759789e-03 8.235042e-03 1.046717e-03 1.624015e-03 2.547192e-05 5.728166e-03 7.227579e-03 7.225291e-03 9.493484e-03 1.188426e-02 1.644828e-02 
    41.5                4.122681e-03 4.120753e-03 5.844949e-03 6.287390e-04 1.125607e-03 1.832976e-05 4.099336e-03 5.065579e-03 5.063468e-03 6.612195e-03 8.491386e-03 1.165789e-02 
    42.5                2.806575e-03 2.804851e-03 3.917838e-03 3.466908e-04 7.407636e-04 1.259388e-05 2.791343e-03 3.367143e-03 3.365935e-03 4.351208e-03 5.772449e-03 7.842711e-03 
    43.5                1.754734e-03 1.753540e-03 2.355437e-03 1.825630e-04 4.397708e-04 8.131146e-06 1.745842e-03 2.043629e-03 2.042775e-03 2.587519e-03 3.601696e-03 4.817694e-03 
    44.5                9.652556e-04 9.643731e-04 1.229453e-03 8.756279e-05 2.271716e-04 4.694551e-06 9.605776e-04 1.088076e-03 1.087638e-03 1.341730e-03 1.976488e-03 2.596727e-03 
    45.5                4.405005e-04 4.401395e-04 5.115723e-04 3.568348e-05 9.393528e-05 2.332319e-06 4.386500e-04 4.759694e-04 4.754841e-04 5.573215e-04 8.990907e-04 1.148497e-03 
    46.5                1.484947e-04 1.483826e-04 1.505223e-04 1.239542e-05 2.760762e-05 9.043066e-07 1.479430e-04 1.528586e-04 1.528340e-04 1.658876e-04 3.020049e-04 3.731637e-04 
    47.5                3.514225e-05 3.516390e-05 2.957412e-05 3.065442e-06 5.418662e-06 2.461413e-07 3.506801e-05 3.423718e-05 3.419664e-05 3.323276e-05 7.120788e-05 8.440718e-05 
    48.5                4.827335e-06 4.835242e-06 2.699625e-06 4.816791e-07 4.997662e-07 4.201174e-08 4.822204e-06 4.303620e-06 4.308427e-06 3.241231e-06 9.718281e-06 1.070543e-05 
    49.5                1.534776e-07 1.541775e-07 2.387557e-08 2.680277e-08 4.964939e-09 2.261820e-09 1.534933e-07 1.246994e-07 1.258928e-07 5.167951e-08 3.078043e-07 3.134712e-07 
    50.5                0.000000e+00 0.000000e+00 0.000000e+00 0.000000e+00 0.000000e+00 0.000000e+00 0.000000e+00 0.000000e+00 0.000000e+00 0.000000e+00 0.000000e+00 0.000000e+00 
    51.5                0.000000e+00 0.000000e+00 0.000000e+00 0.000000e+00 0.000000e+00 0.000000e+00 0.000000e+00 0.000000e+00 0.000000e+00 0.000000e+00 0.000000e+00 0.000000e+00 
    52.5                0.000000e+00 0.000000e+00 0.000000e+00 0.000000e+00 0.000000e+00 0.000000e+00 0.000000e+00 0.000000e+00 0.000000e+00 0.000000e+00 0.000000e+00 0.000000e+00 
    53.5                0.000000e+00 0.000000e+00 0.000000e+00 0.000000e+00 0.000000e+00 0.000000e+00 0.000000e+00 0.000000e+00 0.000000e+00 0.000000e+00 0.000000e+00 0.000000e+00 
    54.5                0.000000e+00 0.000000e+00 0.000000e+00 0.000000e+00 0.000000e+00 0.000000e+00 0.000000e+00 0.000000e+00 0.000000e+00 0.000000e+00 0.000000e+00 0.000000e+00 
    55.5                0.000000e+00 0.000000e+00 0.000000e+00 0.000000e+00 0.000000e+00 0.000000e+00 0.000000e+00 0.000000e+00 0.000000e+00 0.000000e+00 0.000000e+00 0.000000e+00 
    56.5                0.000000e+00 0.000000e+00 0.000000e+00 0.000000e+00 0.000000e+00 0.000000e+00 0.000000e+00 0.000000e+00 0.000000e+00 0.000000e+00 0.000000e+00 0.000000e+00 
    57.5                0.000000e+00 0.000000e+00 0.000000e+00 0.000000e+00 0.000000e+00 0.000000e+00 0.000000e+00 0.000000e+00 0.000000e+00 0.000000e+00 0.000000e+00 0.000000e+00 
    58.5                0.000000e+00 0.000000e+00 0.000000e+00 0.000000e+00 0.000000e+00 0.000000e+00 0.000000e+00 0.000000e+00 0.000000e+00 0.000000e+00 0.000000e+00 0.000000e+00 
    59.5                0.000000e+00 0.000000e+00 0.000000e+00 0.000000e+00 0.000000e+00 0.000000e+00 0.000000e+00 0.000000e+00 0.000000e+00 0.000000e+00 0.000000e+00 0.000000e+00 
    60.5                0.000000e+00 0.000000e+00 0.000000e+00 0.000000e+00 0.000000e+00 0.000000e+00 0.000000e+00 0.000000e+00 0.000000e+00 0.000000e+00 0.000000e+00 0.000000e+00 
    61.5                0.000000e+00 0.000000e+00 0.000000e+00 0.000000e+00 0.000000e+00 0.000000e+00 0.000000e+00 0.000000e+00 0.000000e+00 0.000000e+00 0.000000e+00 0.000000e+00 
    62.5                0.000000e+00 0.000000e+00 0.000000e+00 0.000000e+00 0.000000e+00 0.000000e+00 0.000000e+00 0.000000e+00 0.000000e+00 0.000000e+00 0.000000e+00 0.000000e+00 
    63.5                0.000000e+00 0.000000e+00 0.000000e+00 0.000000e+00 0.000000e+00 0.000000e+00 0.000000e+00 0.000000e+00 0.000000e+00 0.000000e+00 0.000000e+00 0.000000e+00 
    64.5                0.000000e+00 0.000000e+00 0.000000e+00 0.000000e+00 0.000000e+00 0.000000e+00 0.000000e+00 0.000000e+00 0.000000e+00 0.000000e+00 0.000000e+00 0.000000e+00 
    65.5                0.000000e+00 0.000000e+00 0.000000e+00 0.000000e+00 0.000000e+00 0.000000e+00 0.000000e+00 0.000000e+00 0.000000e+00 0.000000e+00 0.000000e+00 0.000000e+00 
    66.5                0.000000e+00 0.000000e+00 0.000000e+00 0.000000e+00 0.000000e+00 0.000000e+00 0.000000e+00 0.000000e+00 0.000000e+00 0.000000e+00 0.000000e+00 0.000000e+00 
    67.5                0.000000e+00 0.000000e+00 0.000000e+00 0.000000e+00 0.000000e+00 0.000000e+00 0.000000e+00 0.000000e+00 0.000000e+00 0.000000e+00 0.000000e+00 0.000000e+00 
    68.5                0.000000e+00 0.000000e+00 0.000000e+00 0.000000e+00 0.000000e+00 0.000000e+00 0.000000e+00 0.000000e+00 0.000000e+00 0.000000e+00 0.000000e+00 0.000000e+00 
    69.5                0.000000e+00 0.000000e+00 0.000000e+00 0.000000e+00 0.000000e+00 0.000000e+00 0.000000e+00 0.000000e+00 0.000000e+00 0.000000e+00 0.000000e+00 0.000000e+00 
    70.5                0.000000e+00 0.000000e+00 0.000000e+00 0.000000e+00 0.000000e+00 0.000000e+00 0.000000e+00 0.000000e+00 0.000000e+00 0.000000e+00 0.000000e+00 0.000000e+00 
    71.5                0.000000e+00 0.000000e+00 0.000000e+00 0.000000e+00 0.000000e+00 0.000000e+00 0.000000e+00 0.000000e+00 0.000000e+00 0.000000e+00 0.000000e+00 0.000000e+00 
    72.5                0.000000e+00 0.000000e+00 0.000000e+00 0.000000e+00 0.000000e+00 0.000000e+00 0.000000e+00 0.000000e+00 0.000000e+00 0.000000e+00 0.000000e+00 0.000000e+00 
    73.5                0.000000e+00 0.000000e+00 0.000000e+00 0.000000e+00 0.000000e+00 0.000000e+00 0.000000e+00 0.000000e+00 0.000000e+00 0.000000e+00 0.000000e+00 0.000000e+00 
    74.5                0.000000e+00 0.000000e+00 0.000000e+00 0.000000e+00 0.000000e+00 0.000000e+00 0.000000e+00 0.000000e+00 0.000000e+00 0.000000e+00 0.000000e+00 0.000000e+00 
    75.5                0.000000e+00 0.000000e+00 0.000000e+00 0.000000e+00 0.000000e+00 0.000000e+00 0.000000e+00 0.000000e+00 0.000000e+00 0.000000e+00 0.000000e+00 0.000000e+00 
    76.5                0.000000e+00 0.000000e+00 0.000000e+00 0.000000e+00 0.000000e+00 0.000000e+00 0.000000e+00 0.000000e+00 0.000000e+00 0.000000e+00 0.000000e+00 0.000000e+00 
    77.5                0.000000e+00 0.000000e+00 0.000000e+00 0.000000e+00 0.000000e+00 0.000000e+00 0.000000e+00 0.000000e+00 0.000000e+00 0.000000e+00 0.000000e+00 0.000000e+00 
    78.5                0.000000e+00 0.000000e+00 0.000000e+00 0.000000e+00 0.000000e+00 0.000000e+00 0.000000e+00 0.000000e+00 0.000000e+00 0.000000e+00 0.000000e+00 0.000000e+00 
    79.5                0.000000e+00 0.000000e+00 0.000000e+00 0.000000e+00 0.000000e+00 0.000000e+00 0.000000e+00 0.000000e+00 0.000000e+00 0.000000e+00 0.000000e+00 0.000000e+00 


