# 80 rows of flux data
# 12 columns of flux data
# 
# total cross-sectional flux  1.027831e+00 /m^2/yr
#
#                             +x ram      -x wake      +y port -y starboard    +z zenith     -z nadir        Earth          Sun     anti-Sun      rot (x)      rot (y)      rot (z) 
# average speed (km/s)         37.64        37.64        40.60        35.25        31.65        44.89        37.70        28.07        28.07        33.98        34.05        37.34 
# total flux (#/m2/yr)  2.321333e-01 2.321651e-01 1.620442e-01 3.216705e-01 6.062332e-01 1.797735e-04 2.313028e-01 1.651243e-01 1.651355e-01 8.532282e-01 8.322604e-01 7.443426e-01 
# velocity (km/s)
     0.5                0.000000e+00 0.000000e+00 0.000000e+00 0.000000e+00 0.000000e+00 0.000000e+00 0.000000e+00 0.000000e+00 0.000000e+00 0.000000e+00 0.000000e+00 0.000000e+00 
     1.5                0.000000e+00 0.000000e+00 0.000000e+00 0.000000e+00 0.000000e+00 0.000000e+00 0.000000e+00 0.000000e+00 0.000000e+00 0.000000e+00 0.000000e+00 0.000000e+00 
     2.5                8.958966e-05 9.002275e-05 1.165133e-04 3.491547e-05 1.678834e-04 5.693518e-08 8.952290e-05 8.731514e-05 8.754249e-05 2.519304e-04 2.715718e-04 2.604412e-04 
     3.5                4.521767e-04 4.522297e-04 4.736067e-04 3.476495e-04 7.730799e-04 4.691158e-07 4.497792e-04 4.537971e-04 4.536763e-04 1.264439e-03 1.314884e-03 1.353835e-03 
     4.5                9.142951e-04 9.141437e-04 8.294790e-04 9.053227e-04 1.615177e-03 1.065286e-06 9.090077e-04 9.675574e-04 9.674519e-04 2.658046e-03 2.702009e-03 2.795513e-03 
     5.5                1.403314e-03 1.403179e-03 1.187207e-03 1.548459e-03 2.664034e-03 1.731877e-06 1.394637e-03 1.559028e-03 1.558993e-03 4.275949e-03 4.289131e-03 4.348763e-03 
     6.5                1.883214e-03 1.882611e-03 1.476455e-03 2.297018e-03 3.947927e-03 2.176335e-06 1.870743e-03 2.155965e-03 2.156045e-03 6.096098e-03 6.053746e-03 5.917709e-03 
     7.5                2.326812e-03 2.325430e-03 1.734613e-03 3.007691e-03 5.351285e-03 2.495583e-06 2.310036e-03 2.718139e-03 2.717927e-03 7.972524e-03 7.853388e-03 7.373103e-03 
     8.5                2.733148e-03 2.731957e-03 1.980966e-03 3.709087e-03 6.735065e-03 2.757370e-06 2.713408e-03 3.256635e-03 3.256800e-03 9.791719e-03 9.591761e-03 8.758153e-03 
     9.5                3.063577e-03 3.062235e-03 2.104932e-03 4.298728e-03 8.072801e-03 2.915299e-06 3.040454e-03 3.714159e-03 3.714243e-03 1.141572e-02 1.117585e-02 9.835235e-03 
    10.5                3.373086e-03 3.372075e-03 2.285450e-03 4.861731e-03 9.428056e-03 3.012643e-06 3.347212e-03 4.168598e-03 4.168694e-03 1.307070e-02 1.274207e-02 1.090315e-02 
    11.5                3.673821e-03 3.672194e-03 2.364170e-03 5.506690e-03 1.099249e-02 3.039688e-06 3.644697e-03 4.614148e-03 4.614071e-03 1.487882e-02 1.449406e-02 1.194683e-02 
    12.5                3.900803e-03 3.899313e-03 2.436635e-03 5.984399e-03 1.218956e-02 2.997320e-06 3.869280e-03 4.935608e-03 4.935782e-03 1.626932e-02 1.579639e-02 1.273717e-02 
    13.5                3.978350e-03 3.976318e-03 2.411706e-03 6.406506e-03 1.321670e-02 2.982066e-06 3.946704e-03 5.063433e-03 5.063724e-03 1.736276e-02 1.680279e-02 1.317382e-02 
    14.5                4.009896e-03 4.007693e-03 2.419752e-03 6.389133e-03 1.386780e-02 2.853545e-06 3.977309e-03 5.125132e-03 5.125031e-03 1.793412e-02 1.741099e-02 1.321523e-02 
    15.5                4.124147e-03 4.123037e-03 2.387499e-03 6.820027e-03 1.497572e-02 2.802895e-06 4.091620e-03 5.246905e-03 5.247330e-03 1.910339e-02 1.850118e-02 1.370639e-02 
    16.5                4.120539e-03 4.119180e-03 2.378363e-03 6.848798e-03 1.529636e-02 2.652382e-06 4.087775e-03 5.261975e-03 5.262195e-03 1.937481e-02 1.876444e-02 1.372003e-02 
    17.5                4.153242e-03 4.152631e-03 2.339687e-03 6.998689e-03 1.574461e-02 2.507994e-06 4.120979e-03 5.243730e-03 5.244081e-03 1.982164e-02 1.918400e-02 1.385876e-02 
    18.5                4.168086e-03 4.166405e-03 2.309203e-03 7.051596e-03 1.625023e-02 2.358999e-06 4.134881e-03 5.202522e-03 5.202491e-03 2.025555e-02 1.961333e-02 1.389331e-02 
    19.5                4.168062e-03 4.167957e-03 2.226167e-03 7.051171e-03 1.637253e-02 2.172652e-06 4.136077e-03 5.089746e-03 5.090342e-03 2.028390e-02 1.967764e-02 1.383215e-02 
    20.5                4.064931e-03 4.064564e-03 2.156496e-03 6.965991e-03 1.618901e-02 1.987668e-06 4.033297e-03 4.906875e-03 4.907039e-03 2.000695e-02 1.934170e-02 1.354362e-02 
    21.5                4.043638e-03 4.042522e-03 2.144001e-03 6.874312e-03 1.635391e-02 1.843137e-06 4.012438e-03 4.781028e-03 4.781170e-03 2.005424e-02 1.943537e-02 1.343135e-02 
    22.5                4.061729e-03 4.061635e-03 2.034879e-03 7.032835e-03 1.658482e-02 1.704899e-06 4.031975e-03 4.660315e-03 4.660677e-03 2.027271e-02 1.962266e-02 1.349357e-02 
    23.5                3.844366e-03 3.844442e-03 1.951611e-03 6.692109e-03 1.570899e-02 1.542859e-06 3.816403e-03 4.368355e-03 4.368839e-03 1.921839e-02 1.855887e-02 1.282289e-02 
    24.5                3.700711e-03 3.700166e-03 1.866498e-03 6.313792e-03 1.509278e-02 1.399920e-06 3.673406e-03 4.105291e-03 4.105337e-03 1.838302e-02 1.780107e-02 1.223119e-02 
    25.5                3.604396e-03 3.604764e-03 1.805525e-03 6.199517e-03 1.474601e-02 1.271498e-06 3.578148e-03 3.886560e-03 3.886877e-03 1.794101e-02 1.734761e-02 1.194086e-02 
    26.5                3.520234e-03 3.520191e-03 1.755674e-03 5.914854e-03 1.422993e-02 1.172717e-06 3.494737e-03 3.673490e-03 3.673871e-03 1.727438e-02 1.675559e-02 1.154606e-02 
    27.5                3.422619e-03 3.422236e-03 1.663585e-03 5.789530e-03 1.364505e-02 1.013592e-06 3.397543e-03 3.466695e-03 3.466733e-03 1.660047e-02 1.607025e-02 1.122244e-02 
    28.5                3.298147e-03 3.299233e-03 1.617867e-03 5.534339e-03 1.306958e-02 8.814445e-07 3.276204e-03 3.219924e-03 3.220338e-03 1.589916e-02 1.538663e-02 1.078991e-02 
    29.5                3.128826e-03 3.128154e-03 1.475228e-03 5.322741e-03 1.234116e-02 7.421258e-07 3.107110e-03 2.915605e-03 2.916008e-03 1.502271e-02 1.451692e-02 1.024079e-02 
    30.5                2.948694e-03 2.948842e-03 1.413404e-03 4.961290e-03 1.180518e-02 6.350332e-07 2.929381e-03 2.698919e-03 2.698918e-03 1.427640e-02 1.381793e-02 9.631474e-03 
    31.5                2.914278e-03 2.914401e-03 1.418237e-03 4.801465e-03 1.146286e-02 5.231956e-07 2.895614e-03 2.540589e-03 2.540933e-03 1.386250e-02 1.343156e-02 9.457036e-03 
    32.5                2.810017e-03 2.811101e-03 1.391352e-03 4.632332e-03 1.075090e-02 4.681317e-07 2.793748e-03 2.336052e-03 2.336296e-03 1.309315e-02 1.266672e-02 9.140025e-03 
    33.5                2.790774e-03 2.791701e-03 1.414701e-03 4.430160e-03 1.042145e-02 4.372023e-07 2.775570e-03 2.161489e-03 2.161704e-03 1.269186e-02 1.232754e-02 8.969957e-03 
    34.5                2.832200e-03 2.831900e-03 1.410860e-03 4.521797e-03 1.047924e-02 3.732883e-07 2.816085e-03 2.073464e-03 2.073687e-03 1.276863e-02 1.239354e-02 9.099936e-03 
    35.5                2.719958e-03 2.722294e-03 1.405389e-03 4.298946e-03 9.645703e-03 3.071990e-07 2.707439e-03 1.939230e-03 1.939468e-03 1.188696e-02 1.152461e-02 8.751692e-03 
    36.5                2.718283e-03 2.718962e-03 1.425187e-03 4.137312e-03 9.440667e-03 2.556614e-07 2.705571e-03 1.810636e-03 1.810846e-03 1.163274e-02 1.133665e-02 8.637573e-03 
    37.5                2.786330e-03 2.787776e-03 1.505219e-03 4.299179e-03 9.528116e-03 2.159148e-07 2.774245e-03 1.755011e-03 1.755192e-03 1.183336e-02 1.147898e-02 8.934671e-03 
    38.5                2.859991e-03 2.862054e-03 1.669702e-03 4.143158e-03 9.378096e-03 1.691525e-07 2.849973e-03 1.686383e-03 1.686693e-03 1.168943e-02 1.143975e-02 9.055081e-03 
    39.5                2.949351e-03 2.951925e-03 1.606010e-03 4.388075e-03 9.215439e-03 1.331139e-07 2.940753e-03 1.637273e-03 1.637464e-03 1.169597e-02 1.141116e-02 9.333057e-03 
    40.5                2.925263e-03 2.925762e-03 1.697037e-03 4.287800e-03 9.069395e-03 1.481715e-07 2.914558e-03 1.570813e-03 1.571128e-03 1.156521e-02 1.124348e-02 9.298161e-03 
    41.5                3.116593e-03 3.119129e-03 1.993346e-03 4.303329e-03 9.171647e-03 3.149900e-07 3.108596e-03 1.556072e-03 1.556391e-03 1.183134e-02 1.157658e-02 9.842787e-03 
    42.5                3.235006e-03 3.235388e-03 1.979412e-03 4.554245e-03 8.837298e-03 4.219327e-07 3.225409e-03 1.548954e-03 1.549017e-03 1.173878e-02 1.147093e-02 1.020920e-02 
    43.5                3.198770e-03 3.200066e-03 2.137993e-03 4.345084e-03 8.486015e-03 4.807999e-07 3.191014e-03 1.497455e-03 1.497443e-03 1.140615e-02 1.114926e-02 1.011524e-02 
    44.5                3.490422e-03 3.492143e-03 2.339032e-03 4.502019e-03 8.883031e-03 3.659038e-07 3.482516e-03 1.541922e-03 1.542109e-03 1.197014e-02 1.186278e-02 1.085878e-02 
    45.5                3.624900e-03 3.626348e-03 2.421057e-03 4.906164e-03 8.821787e-03 4.345689e-07 3.617613e-03 1.550165e-03 1.550395e-03 1.229118e-02 1.198926e-02 1.144669e-02 
    46.5                3.674581e-03 3.672807e-03 2.554226e-03 4.804408e-03 8.624249e-03 5.772763e-07 3.665178e-03 1.525651e-03 1.525886e-03 1.216766e-02 1.191003e-02 1.155139e-02 
    47.5                3.837147e-03 3.840875e-03 2.855773e-03 4.890775e-03 8.586959e-03 1.066114e-06 3.833168e-03 1.549720e-03 1.549947e-03 1.242283e-02 1.215861e-02 1.210961e-02 
    48.5                4.110313e-03 4.110781e-03 3.177415e-03 4.908086e-03 8.623046e-03 1.199080e-06 4.103477e-03 1.591269e-03 1.591236e-03 1.270865e-02 1.261482e-02 1.281571e-02 
    49.5                4.457749e-03 4.456877e-03 3.575280e-03 5.315214e-03 8.902978e-03 1.554556e-06 4.451267e-03 1.650828e-03 1.650928e-03 1.355266e-02 1.336646e-02 1.397561e-02 
    50.5                4.995837e-03 5.001602e-03 4.327967e-03 5.636332e-03 9.326976e-03 2.474834e-06 4.995526e-03 1.747504e-03 1.747652e-03 1.470648e-02 1.450901e-02 1.568563e-02 
    51.5                5.708096e-03 5.714169e-03 4.976761e-03 6.301678e-03 9.598455e-03 3.579974e-06 5.709346e-03 1.844806e-03 1.845135e-03 1.599552e-02 1.588077e-02 1.783870e-02 
    52.5                6.072773e-03 6.069209e-03 5.260037e-03 6.887720e-03 9.244072e-03 5.211903e-06 6.067704e-03 1.901894e-03 1.901811e-03 1.654730e-02 1.629133e-02 1.907496e-02 
    53.5                6.159343e-03 6.161866e-03 5.583477e-03 6.833176e-03 8.829747e-03 6.850035e-06 6.162514e-03 1.920766e-03 1.921154e-03 1.654179e-02 1.619856e-02 1.943861e-02 
    54.5                6.058682e-03 6.060883e-03 5.313917e-03 6.808246e-03 8.233920e-03 7.705009e-06 6.061591e-03 1.900847e-03 1.901178e-03 1.590762e-02 1.565542e-02 1.905546e-02 
    55.5                5.948094e-03 5.950892e-03 5.454736e-03 6.581860e-03 7.891168e-03 8.189017e-06 5.951769e-03 1.883883e-03 1.884097e-03 1.560686e-02 1.525970e-02 1.879103e-02 
    56.5                5.837052e-03 5.838594e-03 5.238663e-03 6.371577e-03 7.462652e-03 8.042063e-06 5.840129e-03 1.844044e-03 1.844221e-03 1.496810e-02 1.479479e-02 1.827508e-02 
    57.5                5.429261e-03 5.432627e-03 4.838788e-03 6.029792e-03 6.701042e-03 7.873483e-06 5.434809e-03 1.740898e-03 1.740953e-03 1.380235e-02 1.360348e-02 1.706067e-02 
    58.5                5.075500e-03 5.075212e-03 4.663499e-03 5.438857e-03 6.108934e-03 7.652837e-06 5.077856e-03 1.604870e-03 1.605069e-03 1.274174e-02 1.261633e-02 1.590366e-02 
    59.5                4.859410e-03 4.859684e-03 4.544092e-03 5.172014e-03 5.631074e-03 7.891560e-06 4.862133e-03 1.481205e-03 1.481367e-03 1.211671e-02 1.194399e-02 1.526262e-02 
    60.5                4.558013e-03 4.565065e-03 4.266058e-03 4.994259e-03 5.021811e-03 7.797085e-06 4.568598e-03 1.326221e-03 1.326519e-03 1.133903e-02 1.106069e-02 1.443783e-02 
    61.5                4.138016e-03 4.138568e-03 3.799620e-03 4.467347e-03 4.254474e-03 7.829784e-06 4.141997e-03 1.164536e-03 1.164527e-03 1.000164e-02 9.856477e-03 1.299725e-02 
    62.5                3.524582e-03 3.523923e-03 3.140671e-03 4.015303e-03 3.414760e-03 7.322681e-06 3.528603e-03 9.912578e-04 9.913590e-04 8.507255e-03 8.294453e-03 1.114559e-02 
    63.5                2.879695e-03 2.881946e-03 2.624003e-03 3.191308e-03 2.693786e-03 6.340275e-06 2.885665e-03 8.106979e-04 8.107363e-04 6.872708e-03 6.724153e-03 9.083066e-03 
    64.5                2.339918e-03 2.341355e-03 2.129611e-03 2.631459e-03 2.108903e-03 5.239146e-06 2.344571e-03 6.413253e-04 6.414090e-04 5.570924e-03 5.421577e-03 7.411507e-03 
    65.5                1.855661e-03 1.854629e-03 1.677545e-03 2.056106e-03 1.572103e-03 4.305154e-06 1.857780e-03 4.839846e-04 4.840343e-04 4.324362e-03 4.240952e-03 5.840573e-03 
    66.5                1.400232e-03 1.400764e-03 1.221164e-03 1.604791e-03 1.098256e-03 3.702783e-06 1.403494e-03 3.432924e-04 3.432992e-04 3.228918e-03 3.158009e-03 4.413365e-03 
    67.5                9.656477e-04 9.654575e-04 8.342808e-04 1.138579e-03 6.889292e-04 2.798120e-06 9.676887e-04 2.205543e-04 2.206063e-04 2.215306e-03 2.143184e-03 3.061744e-03 
    68.5                6.100247e-04 6.104211e-04 5.046055e-04 7.329342e-04 3.778560e-04 2.004608e-06 6.120535e-04 1.233765e-04 1.233911e-04 1.366045e-03 1.327619e-03 1.926026e-03 
    69.5                3.308198e-04 3.305949e-04 2.440527e-04 4.211240e-04 1.653419e-04 1.293675e-06 3.318455e-04 5.664615e-05 5.665414e-05 7.180151e-04 7.030851e-04 1.035879e-03 
    70.5                1.301010e-04 1.299517e-04 6.655988e-05 1.754162e-04 4.596359e-05 7.059565e-07 1.304565e-04 1.805285e-05 1.806146e-05 2.559123e-04 2.692119e-04 3.906057e-04 
    71.5                2.807885e-05 2.791934e-05 9.520305e-06 3.998259e-05 6.230757e-06 2.478443e-07 2.803365e-05 3.110575e-06 3.107866e-06 5.114285e-05 5.693465e-05 8.162012e-05 
    72.5                2.087600e-06 2.062219e-06 2.104634e-07 2.181814e-06 1.730436e-07 2.649655e-08 2.063911e-06 1.438125e-07 1.434413e-07 2.435480e-06 4.158811e-06 5.123466e-06 
    73.5                2.770970e-10 1.263746e-10 0.000000e+00 2.427666e-10 0.000000e+00 9.725376e-12 1.212832e-10 6.587164e-12 4.320690e-12 2.429757e-10 4.035983e-10 4.738998e-10 
    74.5                0.000000e+00 0.000000e+00 0.000000e+00 0.000000e+00 0.000000e+00 0.000000e+00 0.000000e+00 0.000000e+00 0.000000e+00 0.000000e+00 0.000000e+00 0.000000e+00 
    75.5                0.000000e+00 0.000000e+00 0.000000e+00 0.000000e+00 0.000000e+00 0.000000e+00 0.000000e+00 0.000000e+00 0.000000e+00 0.000000e+00 0.000000e+00 0.000000e+00 
    76.5                0.000000e+00 0.000000e+00 0.000000e+00 0.000000e+00 0.000000e+00 0.000000e+00 0.000000e+00 0.000000e+00 0.000000e+00 0.000000e+00 0.000000e+00 0.000000e+00 
    77.5                0.000000e+00 0.000000e+00 0.000000e+00 0.000000e+00 0.000000e+00 0.000000e+00 0.000000e+00 0.000000e+00 0.000000e+00 0.000000e+00 0.000000e+00 0.000000e+00 
    78.5                0.000000e+00 0.000000e+00 0.000000e+00 0.000000e+00 0.000000e+00 0.000000e+00 0.000000e+00 0.000000e+00 0.000000e+00 0.000000e+00 0.000000e+00 0.000000e+00 
    79.5                0.000000e+00 0.000000e+00 0.000000e+00 0.000000e+00 0.000000e+00 0.000000e+00 0.000000e+00 0.000000e+00 0.000000e+00 0.000000e+00 0.000000e+00 0.000000e+00 


