# 80 rows of flux data
# 12 columns of flux data
# 
# total cross-sectional flux  2.394195e+00 /m^2/yr
#
#                             +x ram      -x wake      +y port -y starboard    +z zenith     -z nadir        Earth          Sun     anti-Sun      rot (x)      rot (y)      rot (z) 
# average speed (km/s)         24.74        24.76        25.12        24.37        20.16        28.88        24.75        25.13        25.13        24.16        24.14        24.76 
# total flux (#/m2/yr)  7.313139e-01 7.332719e-01 7.863177e-01 6.805019e-01 4.329536e-01 3.168341e-03 7.271756e-01 1.050769e+00 1.050819e+00 1.618614e+00 1.616370e+00 2.302296e+00 
# velocity (km/s)
     0.5                0.000000e+00 0.000000e+00 0.000000e+00 0.000000e+00 0.000000e+00 0.000000e+00 0.000000e+00 0.000000e+00 0.000000e+00 0.000000e+00 0.000000e+00 0.000000e+00 
     1.5                0.000000e+00 0.000000e+00 0.000000e+00 0.000000e+00 0.000000e+00 0.000000e+00 0.000000e+00 0.000000e+00 0.000000e+00 0.000000e+00 0.000000e+00 0.000000e+00 
     2.5                1.328899e-06 1.225948e-06 0.000000e+00 5.337020e-06 2.403144e-06 0.000000e+00 1.176745e-06 8.238809e-07 8.207137e-07 5.925909e-06 3.739612e-06 6.213174e-06 
     3.5                7.445806e-05 7.224401e-05 8.332452e-06 1.440298e-04 7.296111e-05 4.908466e-08 7.309260e-05 5.190564e-05 5.189098e-05 1.780769e-04 1.753720e-04 2.352187e-04 
     4.5                3.930739e-04 3.852273e-04 1.884999e-04 6.053914e-04 3.838554e-04 5.317151e-07 3.875965e-04 2.881322e-04 2.881339e-04 9.438369e-04 9.348627e-04 1.234673e-03 
     5.5                1.200726e-03 1.186614e-03 7.224317e-04 1.566863e-03 1.283912e-03 2.033337e-06 1.193295e-03 9.666739e-04 9.666510e-04 2.842705e-03 2.930698e-03 3.674544e-03 
     6.5                2.560470e-03 2.545544e-03 2.122824e-03 2.903930e-03 2.880831e-03 4.974747e-06 2.547273e-03 2.209593e-03 2.209193e-03 6.280121e-03 6.336622e-03 7.957723e-03 
     7.5                4.474815e-03 4.451730e-03 3.822914e-03 5.105025e-03 5.238025e-03 8.406460e-06 4.448383e-03 4.081087e-03 4.080629e-03 1.123842e-02 1.122795e-02 1.402118e-02 
     8.5                7.114038e-03 7.094631e-03 6.378325e-03 7.565772e-03 8.163485e-03 1.230094e-05 7.089808e-03 6.689904e-03 6.689967e-03 1.750591e-02 1.774111e-02 2.210947e-02 
     9.5                9.841052e-03 9.843567e-03 9.665899e-03 9.627293e-03 1.142031e-02 1.721988e-05 9.817621e-03 9.849388e-03 9.847915e-03 2.433223e-02 2.464269e-02 3.061372e-02 
    10.5                1.222013e-02 1.224239e-02 1.288574e-02 1.165932e-02 1.478342e-02 2.183871e-05 1.217357e-02 1.339012e-02 1.339002e-02 3.115066e-02 3.103439e-02 3.849082e-02 
    11.5                1.437351e-02 1.440269e-02 1.513170e-02 1.349837e-02 1.751533e-02 2.658167e-05 1.431603e-02 1.689654e-02 1.689582e-02 3.662124e-02 3.668138e-02 4.508796e-02 
    12.5                1.598810e-02 1.603061e-02 1.735982e-02 1.477696e-02 1.926180e-02 3.138760e-05 1.590680e-02 2.005275e-02 2.005372e-02 4.089915e-02 4.080100e-02 5.039256e-02 
    13.5                1.760396e-02 1.763686e-02 1.873841e-02 1.679739e-02 2.055453e-02 3.591871e-05 1.749622e-02 2.314709e-02 2.314616e-02 4.483103e-02 4.456393e-02 5.558130e-02 
    14.5                1.948790e-02 1.952096e-02 2.048142e-02 1.855634e-02 2.140488e-02 4.107024e-05 1.936494e-02 2.644029e-02 2.643944e-02 4.850541e-02 4.847637e-02 6.129703e-02 
    15.5                2.125442e-02 2.128986e-02 2.229744e-02 2.026236e-02 2.164502e-02 4.764614e-05 2.111446e-02 2.962354e-02 2.962469e-02 5.180114e-02 5.180246e-02 6.684519e-02 
    16.5                2.297028e-02 2.301516e-02 2.426649e-02 2.178971e-02 2.182027e-02 5.482976e-05 2.281773e-02 3.263973e-02 3.263817e-02 5.508993e-02 5.501343e-02 7.228647e-02 
    17.5                2.441420e-02 2.445702e-02 2.573153e-02 2.327706e-02 2.151693e-02 6.138687e-05 2.424095e-02 3.536820e-02 3.536911e-02 5.754265e-02 5.743891e-02 7.687309e-02 
    18.5                2.573518e-02 2.578052e-02 2.709505e-02 2.440234e-02 2.093765e-02 6.796083e-05 2.555400e-02 3.783184e-02 3.783109e-02 5.944040e-02 5.946602e-02 8.090741e-02 
    19.5                2.679542e-02 2.685080e-02 2.839825e-02 2.536118e-02 2.044205e-02 7.565356e-05 2.660466e-02 3.990192e-02 3.990241e-02 6.124619e-02 6.113309e-02 8.435430e-02 
    20.5                2.759970e-02 2.765510e-02 2.918738e-02 2.622388e-02 1.958828e-02 8.382675e-05 2.739956e-02 4.145257e-02 4.145274e-02 6.230230e-02 6.216635e-02 8.691639e-02 
    21.5                2.857345e-02 2.861943e-02 2.987798e-02 2.742337e-02 1.873982e-02 9.272301e-05 2.836193e-02 4.312287e-02 4.312415e-02 6.356647e-02 6.348319e-02 8.992135e-02 
    22.5                2.957737e-02 2.962931e-02 3.098860e-02 2.816446e-02 1.824928e-02 1.001855e-04 2.936718e-02 4.477731e-02 4.477757e-02 6.506669e-02 6.511400e-02 9.295868e-02 
    23.5                3.014612e-02 3.020697e-02 3.186105e-02 2.857187e-02 1.735726e-02 1.065443e-04 2.993254e-02 4.577118e-02 4.577205e-02 6.575888e-02 6.568167e-02 9.486150e-02 
    24.5                3.042944e-02 3.049070e-02 3.213162e-02 2.887350e-02 1.635251e-02 1.129734e-04 3.021479e-02 4.624393e-02 4.624583e-02 6.579189e-02 6.571690e-02 9.575881e-02 
    25.5                3.061022e-02 3.067316e-02 3.236383e-02 2.893669e-02 1.520965e-02 1.198425e-04 3.040051e-02 4.646605e-02 4.646592e-02 6.553314e-02 6.551549e-02 9.627617e-02 
    26.5                3.036563e-02 3.044103e-02 3.241015e-02 2.840562e-02 1.400753e-02 1.256275e-04 3.016942e-02 4.605372e-02 4.605551e-02 6.452795e-02 6.453037e-02 9.552130e-02 
    27.5                2.975196e-02 2.982717e-02 3.189100e-02 2.786606e-02 1.277761e-02 1.297995e-04 2.955756e-02 4.509576e-02 4.509817e-02 6.299022e-02 6.281977e-02 9.372563e-02 
    28.5                2.905180e-02 2.912523e-02 3.106005e-02 2.714823e-02 1.159515e-02 1.335087e-04 2.887203e-02 4.385174e-02 4.385378e-02 6.101323e-02 6.099255e-02 9.140704e-02 
    29.5                2.813641e-02 2.821449e-02 3.029584e-02 2.612879e-02 1.041981e-02 1.373724e-04 2.796848e-02 4.234866e-02 4.235065e-02 5.882717e-02 5.875330e-02 8.857014e-02 
    30.5                2.694330e-02 2.702267e-02 2.912511e-02 2.491062e-02 9.226162e-03 1.395282e-04 2.678980e-02 4.039552e-02 4.039716e-02 5.605118e-02 5.598882e-02 8.482305e-02 
    31.5                2.557708e-02 2.565668e-02 2.778449e-02 2.354882e-02 8.010031e-03 1.410828e-04 2.543670e-02 3.816666e-02 3.816978e-02 5.298456e-02 5.289069e-02 8.055500e-02 
    32.5                2.399304e-02 2.407402e-02 2.623406e-02 2.185329e-02 6.853223e-03 1.408554e-04 2.387306e-02 3.555323e-02 3.555703e-02 4.941949e-02 4.940911e-02 7.551939e-02 
    33.5                2.206709e-02 2.215632e-02 2.448858e-02 1.981679e-02 5.800716e-03 1.375245e-04 2.196868e-02 3.250416e-02 3.250684e-02 4.537513e-02 4.529949e-02 6.952982e-02 
    34.5                1.995997e-02 2.004332e-02 2.229535e-02 1.783581e-02 4.824737e-03 1.318187e-04 1.987441e-02 2.921069e-02 2.921320e-02 4.097640e-02 4.085233e-02 6.293721e-02 
    35.5                1.785962e-02 1.793889e-02 2.007042e-02 1.586076e-02 3.909059e-03 1.261108e-04 1.778917e-02 2.594645e-02 2.594992e-02 3.657454e-02 3.644846e-02 5.633681e-02 
    36.5                1.579416e-02 1.586815e-02 1.785183e-02 1.389906e-02 3.080157e-03 1.200438e-04 1.573988e-02 2.274281e-02 2.274439e-02 3.222234e-02 3.214002e-02 4.980388e-02 
    37.5                1.373113e-02 1.380180e-02 1.571454e-02 1.191660e-02 2.378806e-03 1.123780e-04 1.369051e-02 1.960243e-02 1.960630e-02 2.796962e-02 2.787707e-02 4.332429e-02 
    38.5                1.166088e-02 1.172826e-02 1.353444e-02 9.934841e-03 1.785433e-03 1.025531e-04 1.163434e-02 1.649364e-02 1.649668e-02 2.370436e-02 2.362804e-02 3.680237e-02 
    39.5                9.601460e-03 9.664837e-03 1.139600e-02 7.956877e-03 1.287582e-03 9.103460e-05 9.586367e-03 1.345212e-02 1.345492e-02 1.950792e-02 1.942536e-02 3.033054e-02 
    40.5                7.577448e-03 7.636837e-03 9.245958e-03 6.070647e-03 8.817861e-04 7.751971e-05 7.572640e-03 1.051941e-02 1.052246e-02 1.541352e-02 1.531456e-02 2.397895e-02 
    41.5                5.720471e-03 5.771390e-03 7.174875e-03 4.463975e-03 5.709773e-04 6.337745e-05 5.720059e-03 7.882777e-03 7.884914e-03 1.169571e-02 1.155155e-02 1.816664e-02 
    42.5                4.143829e-03 4.183992e-03 5.315866e-03 3.118410e-03 3.487145e-04 4.956994e-05 4.146918e-03 5.648830e-03 5.650917e-03 8.465673e-03 8.361337e-03 1.316515e-02 
    43.5                2.813970e-03 2.848665e-03 3.793221e-03 1.954771e-03 1.993807e-04 3.633194e-05 2.821100e-03 3.801238e-03 3.803394e-03 5.764310e-03 5.680277e-03 8.962216e-03 
    44.5                1.715167e-03 1.741470e-03 2.490464e-03 1.069627e-03 1.030410e-04 2.396789e-05 1.721506e-03 2.310980e-03 2.312332e-03 3.567634e-03 3.465135e-03 5.510969e-03 
    45.5                8.981403e-04 9.166309e-04 1.437152e-03 4.663182e-04 4.617871e-05 1.356688e-05 9.035651e-04 1.211145e-03 1.212042e-03 1.906497e-03 1.818358e-03 2.920117e-03 
    46.5                3.734928e-04 3.839233e-04 6.910919e-04 1.444006e-04 1.716971e-05 6.199450e-06 3.760231e-04 5.134196e-04 5.141141e-04 8.365021e-04 7.587188e-04 1.250853e-03 
    47.5                1.127092e-04 1.167857e-04 2.431819e-04 3.010530e-05 4.846751e-06 2.112337e-06 1.133511e-04 1.605889e-04 1.608113e-04 2.735361e-04 2.298729e-04 3.950233e-04 
    48.5                2.324155e-05 2.429204e-05 5.987014e-05 3.022533e-06 9.664048e-07 5.034198e-07 2.328667e-05 3.494696e-05 3.500058e-05 6.293563e-05 4.761126e-05 8.675655e-05 
    49.5                2.552469e-06 2.693296e-06 8.398745e-06 4.403788e-08 1.136843e-07 6.633740e-08 2.520067e-06 4.296366e-06 4.317529e-06 8.446524e-06 5.256067e-06 1.074611e-05 
    50.5                4.938073e-08 5.330050e-08 2.401655e-07 0.000000e+00 2.822470e-09 1.711021e-09 4.702356e-08 1.091344e-07 1.074649e-07 2.402207e-07 1.029930e-07 2.712709e-07 
    51.5                0.000000e+00 0.000000e+00 0.000000e+00 0.000000e+00 0.000000e+00 0.000000e+00 0.000000e+00 0.000000e+00 0.000000e+00 0.000000e+00 0.000000e+00 0.000000e+00 
    52.5                0.000000e+00 0.000000e+00 0.000000e+00 0.000000e+00 0.000000e+00 0.000000e+00 0.000000e+00 0.000000e+00 0.000000e+00 0.000000e+00 0.000000e+00 0.000000e+00 
    53.5                0.000000e+00 0.000000e+00 0.000000e+00 0.000000e+00 0.000000e+00 0.000000e+00 0.000000e+00 0.000000e+00 0.000000e+00 0.000000e+00 0.000000e+00 0.000000e+00 
    54.5                0.000000e+00 0.000000e+00 0.000000e+00 0.000000e+00 0.000000e+00 0.000000e+00 0.000000e+00 0.000000e+00 0.000000e+00 0.000000e+00 0.000000e+00 0.000000e+00 
    55.5                0.000000e+00 0.000000e+00 0.000000e+00 0.000000e+00 0.000000e+00 0.000000e+00 0.000000e+00 0.000000e+00 0.000000e+00 0.000000e+00 0.000000e+00 0.000000e+00 
    56.5                0.000000e+00 0.000000e+00 0.000000e+00 0.000000e+00 0.000000e+00 0.000000e+00 0.000000e+00 0.000000e+00 0.000000e+00 0.000000e+00 0.000000e+00 0.000000e+00 
    57.5                0.000000e+00 0.000000e+00 0.000000e+00 0.000000e+00 0.000000e+00 0.000000e+00 0.000000e+00 0.000000e+00 0.000000e+00 0.000000e+00 0.000000e+00 0.000000e+00 
    58.5                0.000000e+00 0.000000e+00 0.000000e+00 0.000000e+00 0.000000e+00 0.000000e+00 0.000000e+00 0.000000e+00 0.000000e+00 0.000000e+00 0.000000e+00 0.000000e+00 
    59.5                0.000000e+00 0.000000e+00 0.000000e+00 0.000000e+00 0.000000e+00 0.000000e+00 0.000000e+00 0.000000e+00 0.000000e+00 0.000000e+00 0.000000e+00 0.000000e+00 
    60.5                0.000000e+00 0.000000e+00 0.000000e+00 0.000000e+00 0.000000e+00 0.000000e+00 0.000000e+00 0.000000e+00 0.000000e+00 0.000000e+00 0.000000e+00 0.000000e+00 
    61.5                0.000000e+00 0.000000e+00 0.000000e+00 0.000000e+00 0.000000e+00 0.000000e+00 0.000000e+00 0.000000e+00 0.000000e+00 0.000000e+00 0.000000e+00 0.000000e+00 
    62.5                0.000000e+00 0.000000e+00 0.000000e+00 0.000000e+00 0.000000e+00 0.000000e+00 0.000000e+00 0.000000e+00 0.000000e+00 0.000000e+00 0.000000e+00 0.000000e+00 
    63.5                0.000000e+00 0.000000e+00 0.000000e+00 0.000000e+00 0.000000e+00 0.000000e+00 0.000000e+00 0.000000e+00 0.000000e+00 0.000000e+00 0.000000e+00 0.000000e+00 
    64.5                0.000000e+00 0.000000e+00 0.000000e+00 0.000000e+00 0.000000e+00 0.000000e+00 0.000000e+00 0.000000e+00 0.000000e+00 0.000000e+00 0.000000e+00 0.000000e+00 
    65.5                0.000000e+00 0.000000e+00 0.000000e+00 0.000000e+00 0.000000e+00 0.000000e+00 0.000000e+00 0.000000e+00 0.000000e+00 0.000000e+00 0.000000e+00 0.000000e+00 
    66.5                0.000000e+00 0.000000e+00 0.000000e+00 0.000000e+00 0.000000e+00 0.000000e+00 0.000000e+00 0.000000e+00 0.000000e+00 0.000000e+00 0.000000e+00 0.000000e+00 
    67.5                0.000000e+00 0.000000e+00 0.000000e+00 0.000000e+00 0.000000e+00 0.000000e+00 0.000000e+00 0.000000e+00 0.000000e+00 0.000000e+00 0.000000e+00 0.000000e+00 
    68.5                0.000000e+00 0.000000e+00 0.000000e+00 0.000000e+00 0.000000e+00 0.000000e+00 0.000000e+00 0.000000e+00 0.000000e+00 0.000000e+00 0.000000e+00 0.000000e+00 
    69.5                0.000000e+00 0.000000e+00 0.000000e+00 0.000000e+00 0.000000e+00 0.000000e+00 0.000000e+00 0.000000e+00 0.000000e+00 0.000000e+00 0.000000e+00 0.000000e+00 
    70.5                0.000000e+00 0.000000e+00 0.000000e+00 0.000000e+00 0.000000e+00 0.000000e+00 0.000000e+00 0.000000e+00 0.000000e+00 0.000000e+00 0.000000e+00 0.000000e+00 
    71.5                0.000000e+00 0.000000e+00 0.000000e+00 0.000000e+00 0.000000e+00 0.000000e+00 0.000000e+00 0.000000e+00 0.000000e+00 0.000000e+00 0.000000e+00 0.000000e+00 
    72.5                0.000000e+00 0.000000e+00 0.000000e+00 0.000000e+00 0.000000e+00 0.000000e+00 0.000000e+00 0.000000e+00 0.000000e+00 0.000000e+00 0.000000e+00 0.000000e+00 
    73.5                0.000000e+00 0.000000e+00 0.000000e+00 0.000000e+00 0.000000e+00 0.000000e+00 0.000000e+00 0.000000e+00 0.000000e+00 0.000000e+00 0.000000e+00 0.000000e+00 
    74.5                0.000000e+00 0.000000e+00 0.000000e+00 0.000000e+00 0.000000e+00 0.000000e+00 0.000000e+00 0.000000e+00 0.000000e+00 0.000000e+00 0.000000e+00 0.000000e+00 
    75.5                0.000000e+00 0.000000e+00 0.000000e+00 0.000000e+00 0.000000e+00 0.000000e+00 0.000000e+00 0.000000e+00 0.000000e+00 0.000000e+00 0.000000e+00 0.000000e+00 
    76.5                0.000000e+00 0.000000e+00 0.000000e+00 0.000000e+00 0.000000e+00 0.000000e+00 0.000000e+00 0.000000e+00 0.000000e+00 0.000000e+00 0.000000e+00 0.000000e+00 
    77.5                0.000000e+00 0.000000e+00 0.000000e+00 0.000000e+00 0.000000e+00 0.000000e+00 0.000000e+00 0.000000e+00 0.000000e+00 0.000000e+00 0.000000e+00 0.000000e+00 
    78.5                0.000000e+00 0.000000e+00 0.000000e+00 0.000000e+00 0.000000e+00 0.000000e+00 0.000000e+00 0.000000e+00 0.000000e+00 0.000000e+00 0.000000e+00 0.000000e+00 
    79.5                0.000000e+00 0.000000e+00 0.000000e+00 0.000000e+00 0.000000e+00 0.000000e+00 0.000000e+00 0.000000e+00 0.000000e+00 0.000000e+00 0.000000e+00 0.000000e+00 


