# 80 rows of flux data
# 12 columns of flux data
# 
# total cross-sectional flux  1.047745e+00 /m^2/yr
#
#                       +x vernal eq.           -x           +y           -y +z eclip. N. -z eclip. S.        Earth          Sun     anti-Sun      rot (x)      rot (y)      rot (z) 
# average speed (km/s)         37.50        37.60        37.55        37.59        42.46        30.38        39.50        27.75        28.19        33.90        33.89        37.56 
# total flux (#/m2/yr)  2.288117e-01 2.469991e-01 2.356206e-01 2.395596e-01 7.488925e-02 5.734214e-01 3.648804e-01 1.675131e-01 1.716463e-01 8.685317e-01 8.688172e-01 7.468754e-01 
# velocity (km/s)
     0.5                0.000000e+00 0.000000e+00 0.000000e+00 0.000000e+00 0.000000e+00 0.000000e+00 0.000000e+00 0.000000e+00 0.000000e+00 0.000000e+00 0.000000e+00 0.000000e+00 
     1.5                0.000000e+00 0.000000e+00 0.000000e+00 0.000000e+00 0.000000e+00 0.000000e+00 0.000000e+00 0.000000e+00 0.000000e+00 0.000000e+00 0.000000e+00 0.000000e+00 
     2.5                9.138328e-05 6.791267e-05 7.659355e-05 8.163606e-05 2.171066e-05 1.328100e-04 1.372789e-04 7.797856e-05 8.297818e-05 2.451377e-04 2.458374e-04 2.491732e-04 
     3.5                4.556518e-04 3.950264e-04 4.300021e-04 4.233578e-04 1.301581e-04 6.266740e-04 7.368456e-04 4.176628e-04 4.469303e-04 1.257226e-03 1.256540e-03 1.337726e-03 
     4.5                9.114496e-04 9.125680e-04 9.153654e-04 9.102287e-04 2.912795e-04 1.388974e-03 1.551410e-03 9.493079e-04 9.869532e-04 2.736911e-03 2.735773e-03 2.865664e-03 
     5.5                1.399988e-03 1.472508e-03 1.438038e-03 1.442727e-03 4.514450e-04 2.380233e-03 2.391531e-03 1.585099e-03 1.622820e-03 4.454612e-03 4.451226e-03 4.518714e-03 
     6.5                1.854083e-03 2.059207e-03 1.945923e-03 1.975298e-03 6.083824e-04 3.649295e-03 3.192918e-03 2.239282e-03 2.263020e-03 6.387245e-03 6.384301e-03 6.153814e-03 
     7.5                2.261038e-03 2.581781e-03 2.399189e-03 2.449132e-03 7.237469e-04 5.051299e-03 3.859987e-03 2.835320e-03 2.845285e-03 8.309961e-03 8.305299e-03 7.610821e-03 
     8.5                2.655290e-03 3.044597e-03 2.803939e-03 2.873246e-03 8.217163e-04 6.449335e-03 4.439842e-03 3.387812e-03 3.385668e-03 1.014586e-02 1.016131e-02 8.934556e-03 
     9.5                2.998076e-03 3.380897e-03 3.150196e-03 3.218555e-03 8.925853e-04 7.812912e-03 4.909315e-03 3.863099e-03 3.863014e-03 1.183208e-02 1.184276e-02 1.001266e-02 
    10.5                3.315794e-03 3.672556e-03 3.464659e-03 3.532931e-03 9.446997e-04 9.183696e-03 5.279677e-03 4.307184e-03 4.319880e-03 1.346048e-02 1.346111e-02 1.098541e-02 
    11.5                3.627969e-03 3.983139e-03 3.761721e-03 3.828894e-03 9.918220e-04 1.080977e-02 5.649478e-03 4.764179e-03 4.790261e-03 1.529637e-02 1.531072e-02 1.193903e-02 
    12.5                3.769065e-03 4.272046e-03 3.971160e-03 4.070971e-03 9.987051e-04 1.206897e-02 5.862117e-03 5.085689e-03 5.118191e-03 1.666378e-02 1.666639e-02 1.263113e-02 
    13.5                3.829241e-03 4.409225e-03 4.032430e-03 4.153310e-03 9.674346e-04 1.319541e-02 5.889420e-03 5.216105e-03 5.249133e-03 1.773042e-02 1.776085e-02 1.289806e-02 
    14.5                3.890711e-03 4.366313e-03 4.068059e-03 4.166521e-03 9.465354e-04 1.382724e-02 5.865867e-03 5.265085e-03 5.302897e-03 1.829410e-02 1.830905e-02 1.295189e-02 
    15.5                4.000192e-03 4.494465e-03 4.173694e-03 4.277650e-03 9.276562e-04 1.503409e-02 5.924549e-03 5.380366e-03 5.418041e-03 1.945903e-02 1.947567e-02 1.330720e-02 
    16.5                4.003892e-03 4.463123e-03 4.188983e-03 4.286773e-03 9.205593e-04 1.535553e-02 5.880074e-03 5.397470e-03 5.434439e-03 1.972878e-02 1.972769e-02 1.330623e-02 
    17.5                4.009148e-03 4.511555e-03 4.192434e-03 4.300471e-03 8.935715e-04 1.585080e-02 5.840267e-03 5.365168e-03 5.401665e-03 2.013740e-02 2.015012e-02 1.336042e-02 
    18.5                4.065869e-03 4.474159e-03 4.220271e-03 4.308140e-03 8.686614e-04 1.637330e-02 5.791866e-03 5.324832e-03 5.361789e-03 2.057506e-02 2.057801e-02 1.340558e-02 
    19.5                4.054761e-03 4.464085e-03 4.204930e-03 4.290977e-03 8.620926e-04 1.651077e-02 5.747487e-03 5.210980e-03 5.250880e-03 2.062572e-02 2.063259e-02 1.336654e-02 
    20.5                3.954329e-03 4.380425e-03 4.124973e-03 4.215115e-03 7.974787e-04 1.637947e-02 5.521526e-03 5.024610e-03 5.060025e-03 2.031288e-02 2.031234e-02 1.309767e-02 
    21.5                3.982020e-03 4.287130e-03 4.095023e-03 4.162587e-03 7.811276e-04 1.652687e-02 5.438680e-03 4.886241e-03 4.920610e-03 2.035201e-02 2.035393e-02 1.298066e-02 
    22.5                3.931423e-03 4.336665e-03 4.099832e-03 4.186790e-03 7.593648e-04 1.683021e-02 5.395457e-03 4.761638e-03 4.795939e-03 2.057972e-02 2.056617e-02 1.299876e-02 
    23.5                3.731061e-03 4.162669e-03 3.869913e-03 3.965650e-03 7.062662e-04 1.594563e-02 5.071749e-03 4.457480e-03 4.488865e-03 1.945186e-02 1.947907e-02 1.235531e-02 
    24.5                3.663078e-03 3.886262e-03 3.753240e-03 3.801455e-03 6.698969e-04 1.530013e-02 4.848197e-03 4.193842e-03 4.223604e-03 1.863649e-02 1.863862e-02 1.186251e-02 
    25.5                3.547543e-03 3.799866e-03 3.656104e-03 3.712055e-03 6.291129e-04 1.497449e-02 4.676101e-03 3.964327e-03 3.992996e-03 1.817006e-02 1.816442e-02 1.155601e-02 
    26.5                3.479673e-03 3.697697e-03 3.563472e-03 3.611552e-03 6.071315e-04 1.442704e-02 4.547426e-03 3.755654e-03 3.784433e-03 1.751723e-02 1.751879e-02 1.127260e-02 
    27.5                3.333925e-03 3.665612e-03 3.453109e-03 3.526895e-03 5.838900e-04 1.386828e-02 4.386421e-03 3.550902e-03 3.577380e-03 1.683788e-02 1.684551e-02 1.097539e-02 
    28.5                3.238166e-03 3.496870e-03 3.333782e-03 3.391896e-03 5.447306e-04 1.328523e-02 4.174278e-03 3.286651e-03 3.311770e-03 1.610100e-02 1.610899e-02 1.057184e-02 
    29.5                3.029627e-03 3.358732e-03 3.160618e-03 3.233010e-03 5.232782e-04 1.259050e-02 3.942065e-03 2.981758e-03 3.006044e-03 1.524820e-02 1.525155e-02 1.003909e-02 
    30.5                2.917746e-03 3.143096e-03 2.984573e-03 3.035608e-03 4.922042e-04 1.200669e-02 3.697994e-03 2.763329e-03 2.785884e-03 1.447862e-02 1.449306e-02 9.488452e-03 
    31.5                2.924951e-03 3.015243e-03 2.960346e-03 2.980718e-03 4.658505e-04 1.165836e-02 3.598534e-03 2.598651e-03 2.619487e-03 1.405724e-02 1.405566e-02 9.334950e-03 
    32.5                2.825848e-03 2.963251e-03 2.835003e-03 2.865996e-03 4.627266e-04 1.094469e-02 3.469603e-03 2.386203e-03 2.407518e-03 1.327197e-02 1.329996e-02 9.025744e-03 
    33.5                2.865891e-03 2.912469e-03 2.825024e-03 2.834525e-03 4.533981e-04 1.057675e-02 3.436236e-03 2.205244e-03 2.226909e-03 1.288567e-02 1.293535e-02 8.982540e-03 
    34.5                2.842196e-03 3.000447e-03 2.863075e-03 2.901540e-03 4.851982e-04 1.064853e-02 3.485616e-03 2.122685e-03 2.145409e-03 1.300750e-02 1.304437e-02 9.118458e-03 
    35.5                2.762649e-03 2.865852e-03 2.770687e-03 2.792597e-03 5.116225e-04 9.762878e-03 3.390166e-03 1.985035e-03 2.009041e-03 1.211916e-02 1.214589e-02 8.789022e-03 
    36.5                2.774807e-03 2.761463e-03 2.818337e-03 2.816430e-03 5.291888e-04 9.514656e-03 3.402139e-03 1.853981e-03 1.879402e-03 1.193446e-02 1.188820e-02 8.772622e-03 
    37.5                2.735729e-03 3.020777e-03 2.876826e-03 2.940057e-03 6.159483e-04 9.581095e-03 3.554173e-03 1.798607e-03 1.827826e-03 1.216854e-02 1.213789e-02 9.091993e-03 
    38.5                2.825943e-03 3.144917e-03 2.921132e-03 2.997796e-03 7.639238e-04 9.245294e-03 3.804800e-03 1.727046e-03 1.766198e-03 1.206564e-02 1.208645e-02 9.339886e-03 
    39.5                2.927702e-03 3.203677e-03 3.020658e-03 3.082614e-03 8.725200e-04 9.083410e-03 4.024920e-03 1.675622e-03 1.720506e-03 1.212183e-02 1.213098e-02 9.607014e-03 
    40.5                3.051653e-03 3.019681e-03 3.078088e-03 3.072408e-03 8.813791e-04 8.882570e-03 3.997102e-03 1.608737e-03 1.653371e-03 1.197491e-02 1.192788e-02 9.597706e-03 
    41.5                3.302434e-03 3.123042e-03 3.286262e-03 3.253496e-03 1.044651e-03 8.780364e-03 4.406131e-03 1.587989e-03 1.643357e-03 1.226662e-02 1.219691e-02 1.017661e-02 
    42.5                3.348811e-03 3.366531e-03 3.347553e-03 3.354557e-03 1.202936e-03 8.386443e-03 4.757682e-03 1.578816e-03 1.644172e-03 1.217944e-02 1.219424e-02 1.053606e-02 
    43.5                3.414474e-03 3.339588e-03 3.332749e-03 3.315918e-03 1.253860e-03 7.862927e-03 4.826569e-03 1.524562e-03 1.594362e-03 1.176930e-02 1.183383e-02 1.052112e-02 
    44.5                3.751154e-03 3.547494e-03 3.635461e-03 3.593973e-03 1.452657e-03 8.048329e-03 5.427489e-03 1.567858e-03 1.650668e-03 1.246021e-02 1.249660e-02 1.140868e-02 
    45.5                3.723618e-03 3.951613e-03 3.722837e-03 3.770220e-03 1.604062e-03 7.958827e-03 5.743487e-03 1.571785e-03 1.660166e-03 1.267263e-02 1.279755e-02 1.189985e-02 
    46.5                3.815287e-03 3.866038e-03 3.771060e-03 3.788231e-03 1.617157e-03 7.700533e-03 5.848825e-03 1.534248e-03 1.624161e-03 1.252847e-02 1.263060e-02 1.196850e-02 
    47.5                4.032983e-03 3.944550e-03 4.001855e-03 3.984905e-03 1.691710e-03 7.561340e-03 6.217787e-03 1.551757e-03 1.647821e-03 1.281524e-02 1.281041e-02 1.254651e-02 
    48.5                4.321470e-03 4.261130e-03 4.217243e-03 4.203303e-03 1.886645e-03 7.317857e-03 6.894245e-03 1.593256e-03 1.703771e-03 1.310762e-02 1.321830e-02 1.335564e-02 
    49.5                4.873305e-03 4.487108e-03 4.648336e-03 4.565928e-03 2.084373e-03 7.416387e-03 7.617256e-03 1.646633e-03 1.770371e-03 1.391817e-02 1.402082e-02 1.459301e-02 
    50.5                5.495716e-03 4.783643e-03 5.254931e-03 5.107657e-03 2.379476e-03 7.462620e-03 8.721505e-03 1.721153e-03 1.865368e-03 1.503124e-02 1.497873e-02 1.620579e-02 
    51.5                6.080088e-03 5.461351e-03 5.919457e-03 5.786597e-03 2.686301e-03 7.453074e-03 1.017929e-02 1.791920e-03 1.962602e-03 1.631251e-02 1.619447e-02 1.826723e-02 
    52.5                6.070468e-03 6.071414e-03 6.199982e-03 6.208517e-03 2.792293e-03 7.126964e-03 1.092095e-02 1.832750e-03 2.014531e-03 1.674358e-02 1.654812e-02 1.929303e-02 
    53.5                5.921950e-03 6.449505e-03 6.209437e-03 6.329684e-03 2.791926e-03 6.667363e-03 1.119966e-02 1.846132e-03 2.030934e-03 1.656002e-02 1.642720e-02 1.956584e-02 
    54.5                5.817088e-03 6.429217e-03 6.063231e-03 6.208498e-03 2.749011e-03 6.185387e-03 1.117135e-02 1.825971e-03 2.008366e-03 1.599050e-02 1.596542e-02 1.925115e-02 
    55.5                5.918569e-03 6.291422e-03 5.954505e-03 6.034448e-03 2.680049e-03 5.836026e-03 1.097196e-02 1.798875e-03 1.975035e-03 1.548621e-02 1.565270e-02 1.899814e-02 
    56.5                5.735652e-03 6.039633e-03 5.855858e-03 5.922087e-03 2.631252e-03 5.452168e-03 1.084024e-02 1.755039e-03 1.926983e-03 1.502544e-02 1.501405e-02 1.849696e-02 
    57.5                5.205634e-03 5.773774e-03 5.466829e-03 5.590745e-03 2.430627e-03 4.893234e-03 1.015186e-02 1.667789e-03 1.825541e-03 1.392547e-02 1.386586e-02 1.730775e-02 
    58.5                4.858219e-03 5.456335e-03 5.089012e-03 5.224951e-03 2.250095e-03 4.350957e-03 9.566478e-03 1.541118e-03 1.687578e-03 1.283950e-02 1.283912e-02 1.619948e-02 
    59.5                4.689883e-03 5.157361e-03 4.834583e-03 4.936532e-03 2.134415e-03 3.938995e-03 9.172900e-03 1.412311e-03 1.551064e-03 1.204397e-02 1.210516e-02 1.540233e-02 
    60.5                4.289306e-03 4.918656e-03 4.515728e-03 4.656277e-03 1.958014e-03 3.531127e-03 8.610187e-03 1.258939e-03 1.386729e-03 1.117379e-02 1.120251e-02 1.443521e-02 
    61.5                3.765929e-03 4.492739e-03 4.030451e-03 4.184639e-03 1.719962e-03 2.965703e-03 7.826486e-03 1.100899e-03 1.214896e-03 9.872754e-03 9.906801e-03 1.294333e-02 
    62.5                3.175874e-03 3.981817e-03 3.457864e-03 3.635760e-03 1.433218e-03 2.443081e-03 6.705831e-03 9.398387e-04 1.035279e-03 8.427769e-03 8.472449e-03 1.119033e-02 
    63.5                2.505275e-03 3.289470e-03 2.844069e-03 3.016941e-03 1.157573e-03 1.898852e-03 5.510511e-03 7.736042e-04 8.505817e-04 6.871423e-03 6.818645e-03 9.148742e-03 
    64.5                2.034252e-03 2.706190e-03 2.286648e-03 2.433199e-03 9.227573e-04 1.492599e-03 4.476539e-03 6.125604e-04 6.739407e-04 5.508393e-03 5.526311e-03 7.432110e-03 
    65.5                1.566411e-03 2.110426e-03 1.814572e-03 1.935049e-03 7.068756e-04 1.110824e-03 3.542307e-03 4.614574e-04 5.090968e-04 4.318180e-03 4.257050e-03 5.833265e-03 
    66.5                1.141798e-03 1.667145e-03 1.366988e-03 1.485501e-03 5.204352e-04 7.996866e-04 2.698548e-03 3.300732e-04 3.656221e-04 3.253853e-03 3.213848e-03 4.447197e-03 
    67.5                7.380734e-04 1.210439e-03 9.414320e-04 1.045353e-03 3.460272e-04 5.199625e-04 1.870048e-03 2.141852e-04 2.382841e-04 2.238524e-03 2.204238e-03 3.090893e-03 
    68.5                4.211993e-04 8.207224e-04 5.808215e-04 6.674540e-04 2.061399e-04 3.018253e-04 1.184482e-03 1.226425e-04 1.375647e-04 1.388860e-03 1.383045e-03 1.955958e-03 
    69.5                1.888087e-04 5.008490e-04 3.090430e-04 3.781175e-04 1.047939e-04 1.506978e-04 6.485585e-04 5.932835e-05 6.731860e-05 7.542656e-04 7.548675e-04 1.080598e-03 
    70.5                5.807515e-05 2.485132e-04 1.234660e-04 1.651440e-04 4.006675e-05 5.712965e-05 2.739106e-04 2.234192e-05 2.561686e-05 3.132672e-04 3.284818e-04 4.674474e-04 
    71.5                9.983003e-06 8.650378e-05 3.269251e-05 4.983528e-05 9.761736e-06 1.446725e-05 7.361407e-05 5.626149e-06 6.474310e-06 8.852142e-05 1.009216e-04 1.405902e-04 
    72.5                3.907299e-07 1.571427e-05 4.041689e-06 7.556810e-06 1.087530e-06 1.636548e-06 1.014027e-05 7.911228e-07 9.037389e-07 1.225712e-05 1.643560e-05 2.177566e-05 
    73.5                9.437462e-12 1.230575e-06 1.558897e-07 4.459107e-07 3.655739e-08 5.005384e-08 4.928660e-07 3.248129e-08 3.776649e-08 6.177478e-07 1.235042e-06 1.441091e-06 
    74.5                0.000000e+00 0.000000e+00 0.000000e+00 0.000000e+00 0.000000e+00 0.000000e+00 0.000000e+00 0.000000e+00 0.000000e+00 0.000000e+00 0.000000e+00 0.000000e+00 
    75.5                0.000000e+00 0.000000e+00 0.000000e+00 0.000000e+00 0.000000e+00 0.000000e+00 0.000000e+00 0.000000e+00 0.000000e+00 0.000000e+00 0.000000e+00 0.000000e+00 
    76.5                0.000000e+00 0.000000e+00 0.000000e+00 0.000000e+00 0.000000e+00 0.000000e+00 0.000000e+00 0.000000e+00 0.000000e+00 0.000000e+00 0.000000e+00 0.000000e+00 
    77.5                0.000000e+00 0.000000e+00 0.000000e+00 0.000000e+00 0.000000e+00 0.000000e+00 0.000000e+00 0.000000e+00 0.000000e+00 0.000000e+00 0.000000e+00 0.000000e+00 
    78.5                0.000000e+00 0.000000e+00 0.000000e+00 0.000000e+00 0.000000e+00 0.000000e+00 0.000000e+00 0.000000e+00 0.000000e+00 0.000000e+00 0.000000e+00 0.000000e+00 
    79.5                0.000000e+00 0.000000e+00 0.000000e+00 0.000000e+00 0.000000e+00 0.000000e+00 0.000000e+00 0.000000e+00 0.000000e+00 0.000000e+00 0.000000e+00 0.000000e+00 


