# 80 rows of flux data
# 12 columns of flux data
# 
# total cross-sectional flux  1.047745e+00 /m^2/yr
#
#                             +x ram      -x wake      +y port -y starboard    +z zenith     -z nadir        Earth          Sun     anti-Sun      rot (x)      rot (y)      rot (z) 
# average speed (km/s)         38.30        37.02        42.79        28.84        33.47        39.66        39.50        27.75        28.19        33.88        35.45        35.48 
# total flux (#/m2/yr)  2.175846e-01 2.589811e-01 1.908475e-01 3.617692e-01 5.344661e-01 3.246734e-04 3.648804e-01 1.675131e-01 1.716463e-01 8.671253e-01 7.932406e-01 8.042834e-01 
# velocity (km/s)
     0.5                0.000000e+00 0.000000e+00 0.000000e+00 0.000000e+00 0.000000e+00 0.000000e+00 0.000000e+00 0.000000e+00 0.000000e+00 0.000000e+00 0.000000e+00 0.000000e+00 
     1.5                0.000000e+00 0.000000e+00 0.000000e+00 0.000000e+00 0.000000e+00 0.000000e+00 0.000000e+00 0.000000e+00 0.000000e+00 0.000000e+00 0.000000e+00 0.000000e+00 
     2.5                1.187337e-04 3.001405e-05 8.089873e-05 8.289335e-05 1.552686e-04 6.594183e-08 1.372789e-04 7.797856e-05 8.297818e-05 2.519547e-04 2.403937e-04 2.456009e-04 
     3.5                4.755496e-04 3.529451e-04 4.483293e-04 3.707724e-04 7.804681e-04 4.272879e-07 7.368456e-04 4.176628e-04 4.469303e-04 1.269478e-03 1.268421e-03 1.295505e-03 
     4.5                8.475156e-04 9.610367e-04 9.454678e-04 8.183120e-04 1.681229e-03 1.090789e-06 1.551410e-03 9.493079e-04 9.869532e-04 2.737684e-03 2.752863e-03 2.806940e-03 
     5.5                1.260766e-03 1.618893e-03 1.426989e-03 1.422804e-03 2.734687e-03 1.809628e-06 2.391531e-03 1.585099e-03 1.622820e-03 4.436248e-03 4.419338e-03 4.493312e-03 
     6.5                1.636812e-03 2.294627e-03 1.858282e-03 2.228686e-03 3.933564e-03 2.530481e-06 3.192918e-03 2.239282e-03 2.263020e-03 6.359815e-03 6.190657e-03 6.287699e-03 
     7.5                2.002741e-03 2.864148e-03 2.166998e-03 3.147356e-03 5.143485e-03 3.101350e-06 3.859987e-03 2.835320e-03 2.845285e-03 8.270564e-03 7.876896e-03 7.981669e-03 
     8.5                2.342968e-03 3.381742e-03 2.421968e-03 4.079814e-03 6.305072e-03 3.636424e-06 4.439842e-03 3.387812e-03 3.385668e-03 1.010761e-02 9.462080e-03 9.583275e-03 
     9.5                2.601132e-03 3.799335e-03 2.601784e-03 4.998078e-03 7.394709e-03 3.983659e-06 4.909315e-03 3.863099e-03 3.863014e-03 1.179899e-02 1.085102e-02 1.097431e-02 
    10.5                2.903731e-03 4.133236e-03 2.708914e-03 5.934842e-03 8.429823e-03 4.294072e-06 5.279677e-03 4.307184e-03 4.319880e-03 1.340835e-02 1.216702e-02 1.229489e-02 
    11.5                3.130478e-03 4.503957e-03 2.808561e-03 7.059507e-03 9.637732e-03 4.595477e-06 5.649478e-03 4.764179e-03 4.790261e-03 1.526321e-02 1.359612e-02 1.373448e-02 
    12.5                3.303611e-03 4.770678e-03 2.802823e-03 7.945742e-03 1.051611e-02 4.725209e-06 5.862117e-03 5.085689e-03 5.118191e-03 1.661848e-02 1.462631e-02 1.476640e-02 
    13.5                3.338896e-03 4.929165e-03 2.728442e-03 8.757849e-03 1.126622e-02 4.639278e-06 5.889420e-03 5.216105e-03 5.249133e-03 1.769267e-02 1.539183e-02 1.552225e-02 
    14.5                3.458764e-03 4.830901e-03 2.657434e-03 9.215128e-03 1.166054e-02 4.523950e-06 5.865867e-03 5.265085e-03 5.302897e-03 1.825639e-02 1.573409e-02 1.585905e-02 
    15.5                3.521885e-03 4.985485e-03 2.576873e-03 1.008324e-02 1.244433e-02 4.551648e-06 5.924549e-03 5.380366e-03 5.418041e-03 1.942708e-02 1.653277e-02 1.666263e-02 
    16.5                3.570903e-03 4.939698e-03 2.522815e-03 1.032028e-02 1.261814e-02 4.562966e-06 5.880074e-03 5.397470e-03 5.434439e-03 1.968938e-02 1.667126e-02 1.681049e-02 
    17.5                3.582578e-03 4.956354e-03 2.432835e-03 1.068709e-02 1.289932e-02 4.480304e-06 5.840267e-03 5.365168e-03 5.401665e-03 2.010886e-02 1.691938e-02 1.705556e-02 
    18.5                3.644664e-03 4.921415e-03 2.338275e-03 1.107190e-02 1.319353e-02 4.371250e-06 5.791866e-03 5.324832e-03 5.361789e-03 2.054129e-02 1.717161e-02 1.730483e-02 
    19.5                3.627484e-03 4.880328e-03 2.273340e-03 1.117570e-02 1.322835e-02 4.327097e-06 5.747487e-03 5.210980e-03 5.250880e-03 2.061711e-02 1.712914e-02 1.726786e-02 
    20.5                3.570898e-03 4.803911e-03 2.093859e-03 1.112480e-02 1.300520e-02 4.160662e-06 5.521526e-03 5.024610e-03 5.060025e-03 2.027478e-02 1.682416e-02 1.695989e-02 
    21.5                3.619321e-03 4.651890e-03 2.011581e-03 1.124312e-02 1.303617e-02 4.100060e-06 5.438680e-03 4.886241e-03 4.920610e-03 2.033618e-02 1.676338e-02 1.690592e-02 
    22.5                3.544084e-03 4.718832e-03 1.922409e-03 1.147032e-02 1.317852e-02 4.011582e-06 5.395457e-03 4.761638e-03 4.795939e-03 2.056377e-02 1.686187e-02 1.700146e-02 
    23.5                3.401082e-03 4.494906e-03 1.775538e-03 1.087530e-02 1.245155e-02 3.734962e-06 5.071749e-03 4.457480e-03 4.488865e-03 1.943802e-02 1.596663e-02 1.609615e-02 
    24.5                3.318528e-03 4.239298e-03 1.658706e-03 1.044388e-02 1.190435e-02 3.594132e-06 4.848197e-03 4.193842e-03 4.223604e-03 1.862440e-02 1.524942e-02 1.538026e-02 
    25.5                3.231236e-03 4.142518e-03 1.553223e-03 1.023494e-02 1.160473e-02 3.368674e-06 4.676101e-03 3.964327e-03 3.992996e-03 1.815010e-02 1.484351e-02 1.496486e-02 
    26.5                3.203184e-03 3.967407e-03 1.481844e-03 9.862948e-03 1.116228e-02 3.254114e-06 4.547426e-03 3.755654e-03 3.784433e-03 1.751289e-02 1.431103e-02 1.443313e-02 
    27.5                3.076840e-03 3.902677e-03 1.386942e-03 9.485376e-03 1.068769e-02 3.196614e-06 4.386421e-03 3.550902e-03 3.577380e-03 1.683607e-02 1.375541e-02 1.388095e-02 
    28.5                3.006564e-03 3.724352e-03 1.267407e-03 9.096731e-03 1.018758e-02 3.059226e-06 4.174278e-03 3.286651e-03 3.311770e-03 1.609476e-02 1.315007e-02 1.327150e-02 
    29.5                2.792258e-03 3.586133e-03 1.175089e-03 8.630980e-03 9.609198e-03 3.187141e-06 3.942065e-03 2.981758e-03 3.006044e-03 1.524931e-02 1.241760e-02 1.255826e-02 
    30.5                2.720007e-03 3.320921e-03 1.077944e-03 8.232180e-03 9.129572e-03 2.926478e-06 3.697994e-03 2.763329e-03 2.785884e-03 1.448080e-02 1.177106e-02 1.189904e-02 
    31.5                2.708372e-03 3.211287e-03 9.916488e-04 8.006347e-03 8.813732e-03 2.913408e-06 3.598534e-03 2.598651e-03 2.619487e-03 1.405918e-02 1.140693e-02 1.154059e-02 
    32.5                2.602780e-03 3.126003e-03 9.603661e-04 7.512914e-03 8.271824e-03 3.104223e-06 3.469603e-03 2.386203e-03 2.407518e-03 1.329181e-02 1.081551e-02 1.096496e-02 
    33.5                2.664170e-03 3.032438e-03 9.288615e-04 7.261307e-03 7.984911e-03 3.113897e-06 3.436236e-03 2.205244e-03 2.226909e-03 1.291893e-02 1.054938e-02 1.070349e-02 
    34.5                2.667882e-03 3.093365e-03 9.393372e-04 7.307899e-03 8.005733e-03 3.538026e-06 3.485616e-03 2.122685e-03 2.145409e-03 1.304068e-02 1.061589e-02 1.079952e-02 
    35.5                2.578472e-03 2.980268e-03 9.650698e-04 6.668900e-03 7.382050e-03 3.650520e-06 3.390166e-03 1.985035e-03 2.009041e-03 1.214788e-02 9.964253e-03 1.015585e-02 
    36.5                2.631946e-03 2.887777e-03 9.843932e-04 6.494076e-03 7.200924e-03 3.981835e-06 3.402139e-03 1.853981e-03 1.879402e-03 1.194001e-02 9.795944e-03 1.001058e-02 
    37.5                2.719587e-03 3.016605e-03 1.104971e-03 6.515698e-03 7.272677e-03 4.849079e-06 3.554173e-03 1.798607e-03 1.827826e-03 1.216860e-02 1.002676e-02 1.029734e-02 
    38.5                2.934467e-03 2.940164e-03 1.353818e-03 6.204862e-03 7.149966e-03 5.651413e-06 3.804800e-03 1.727046e-03 1.766198e-03 1.211475e-02 1.005033e-02 1.036217e-02 
    39.5                2.827377e-03 3.187061e-03 1.537323e-03 6.031412e-03 7.125088e-03 6.144092e-06 4.024920e-03 1.675622e-03 1.720506e-03 1.218130e-02 1.015684e-02 1.048876e-02 
    40.5                2.919405e-03 3.130191e-03 1.536595e-03 5.883082e-03 6.977158e-03 6.191615e-06 3.997102e-03 1.608737e-03 1.653371e-03 1.197303e-02 1.007187e-02 1.039920e-02 
    41.5                3.235291e-03 3.171167e-03 1.856820e-03 5.714693e-03 7.091715e-03 6.773525e-06 4.406131e-03 1.587989e-03 1.643357e-03 1.227067e-02 1.045137e-02 1.079918e-02 
    42.5                3.147125e-03 3.465761e-03 2.187168e-03 5.336695e-03 7.019663e-03 7.161187e-06 4.757682e-03 1.578816e-03 1.644172e-03 1.224091e-02 1.058388e-02 1.094144e-02 
    43.5                3.334632e-03 3.367443e-03 2.327604e-03 4.906395e-03 6.778407e-03 6.712621e-06 4.826569e-03 1.524562e-03 1.594362e-03 1.180066e-02 1.047571e-02 1.078333e-02 
    44.5                3.671901e-03 3.534410e-03 2.744420e-03 4.907787e-03 7.174647e-03 7.096084e-06 5.427489e-03 1.567858e-03 1.650668e-03 1.251754e-02 1.119895e-02 1.151310e-02 
    45.5                3.657389e-03 3.907667e-03 3.018415e-03 4.759155e-03 7.257671e-03 7.726199e-06 5.743487e-03 1.571785e-03 1.660166e-03 1.273640e-02 1.156323e-02 1.190443e-02 
    46.5                3.747526e-03 3.826886e-03 3.121490e-03 4.571293e-03 7.165563e-03 7.888266e-06 5.848825e-03 1.534248e-03 1.624161e-03 1.259929e-02 1.151261e-02 1.186285e-02 
    47.5                4.007513e-03 3.974645e-03 3.413841e-03 4.423107e-03 7.304532e-03 8.206343e-06 6.217787e-03 1.551757e-03 1.647821e-03 1.280825e-02 1.195771e-02 1.230526e-02 
    48.5                4.397284e-03 4.071737e-03 3.981765e-03 4.112900e-03 7.563545e-03 8.328529e-06 6.894245e-03 1.593256e-03 1.703771e-03 1.318772e-02 1.255988e-02 1.289694e-02 
    49.5                4.833926e-03 4.512411e-03 4.505738e-03 4.049244e-03 8.011567e-03 8.809909e-06 7.617256e-03 1.646633e-03 1.770371e-03 1.392716e-02 1.362710e-02 1.395779e-02 
    50.5                5.549831e-03 4.812769e-03 5.334827e-03 3.875963e-03 8.663213e-03 9.322120e-06 8.721505e-03 1.721153e-03 1.865368e-03 1.495994e-02 1.497247e-02 1.529055e-02 
    51.5                6.114282e-03 5.502288e-03 6.427272e-03 3.652823e-03 9.532030e-03 9.754125e-06 1.017929e-02 1.791920e-03 1.962602e-03 1.626271e-02 1.667144e-02 1.697215e-02 
    52.5                6.114615e-03 6.201337e-03 7.027292e-03 3.338143e-03 9.835615e-03 9.879407e-06 1.092095e-02 1.832750e-03 2.014531e-03 1.662268e-02 1.748450e-02 1.776335e-02 
    53.5                6.200650e-03 6.321594e-03 7.301545e-03 2.994625e-03 9.803461e-03 9.606190e-06 1.119966e-02 1.846132e-03 2.030934e-03 1.643950e-02 1.764233e-02 1.789041e-02 
    54.5                5.841691e-03 6.437129e-03 7.358511e-03 2.662106e-03 9.570764e-03 9.066181e-06 1.117135e-02 1.825971e-03 2.008366e-03 1.595150e-02 1.728003e-02 1.749543e-02 
    55.5                5.893305e-03 6.366476e-03 7.267580e-03 2.452410e-03 9.293002e-03 8.854318e-06 1.097196e-02 1.798875e-03 1.975035e-03 1.544089e-02 1.705504e-02 1.725159e-02 
    56.5                5.621305e-03 6.230391e-03 7.229961e-03 2.199358e-03 9.033645e-03 8.393338e-06 1.084024e-02 1.755039e-03 1.926983e-03 1.495565e-02 1.653645e-02 1.671227e-02 
    57.5                5.129536e-03 5.998052e-03 6.801009e-03 1.921193e-03 8.375146e-03 7.639638e-06 1.015186e-02 1.667789e-03 1.825541e-03 1.379922e-02 1.545369e-02 1.559896e-02 
    58.5                4.918080e-03 5.511789e-03 6.444047e-03 1.638325e-03 7.787983e-03 6.799486e-06 9.566478e-03 1.541118e-03 1.687578e-03 1.274528e-02 1.443471e-02 1.454675e-02 
    59.5                4.690399e-03 5.212688e-03 6.212268e-03 1.409932e-03 7.364353e-03 6.240736e-06 9.172900e-03 1.412311e-03 1.551064e-03 1.199171e-02 1.368680e-02 1.377800e-02 
    60.5                4.266689e-03 5.034006e-03 5.850068e-03 1.230546e-03 6.853401e-03 5.690873e-06 8.610187e-03 1.258939e-03 1.386729e-03 1.109709e-02 1.280906e-02 1.288440e-02 
    61.5                3.714848e-03 4.555180e-03 5.346169e-03 9.775720e-04 6.138071e-03 4.891491e-06 7.826486e-03 1.100899e-03 1.214896e-03 9.855759e-03 1.143014e-02 1.148781e-02 
    62.5                3.037894e-03 4.204169e-03 4.589104e-03 7.941704e-04 5.229586e-03 4.231142e-06 6.705831e-03 9.398387e-04 1.035279e-03 8.353831e-03 9.893923e-03 9.938595e-03 
    63.5                2.481299e-03 3.432967e-03 3.784891e-03 5.854807e-04 4.252819e-03 3.374141e-06 5.510511e-03 7.736042e-04 8.505817e-04 6.760352e-03 8.070770e-03 8.103115e-03 
    64.5                1.984710e-03 2.827295e-03 3.079632e-03 4.510659e-04 3.438706e-03 2.721987e-06 4.476539e-03 6.125604e-04 6.739407e-04 5.445139e-03 6.551349e-03 6.575306e-03 
    65.5                1.513016e-03 2.246240e-03 2.443686e-03 3.209423e-04 2.697094e-03 2.093575e-06 3.542307e-03 4.614574e-04 5.090968e-04 4.243921e-03 5.126992e-03 5.143565e-03 
    66.5                1.076005e-03 1.802351e-03 1.865699e-03 2.229460e-04 2.039950e-03 1.577850e-06 2.698548e-03 3.300732e-04 3.656221e-04 3.191266e-03 3.905933e-03 3.917179e-03 
    67.5                6.890810e-04 1.321641e-03 1.295675e-03 1.397467e-04 1.403445e-03 1.082752e-06 1.870048e-03 2.141852e-04 2.382841e-04 2.181061e-03 2.713244e-03 2.720296e-03 
    68.5                3.867488e-04 8.879973e-04 8.226388e-04 7.739992e-05 8.814876e-04 6.779417e-07 1.184482e-03 1.226425e-04 1.375647e-04 1.357810e-03 1.714322e-03 1.718060e-03 
    69.5                1.708159e-04 5.426847e-04 4.510699e-04 3.748838e-05 4.789544e-04 3.787500e-07 6.485585e-04 5.932835e-05 6.731860e-05 7.316486e-04 9.481904e-04 9.499859e-04 
    70.5                4.367115e-05 2.716976e-04 1.908013e-04 1.415472e-05 2.009412e-04 1.708308e-07 2.739106e-04 2.234192e-05 2.561686e-05 3.044038e-04 4.117314e-04 4.124401e-04 
    71.5                5.777242e-06 9.789906e-05 5.117146e-05 3.981235e-06 5.391190e-05 6.251338e-08 7.361407e-05 5.626149e-06 6.474310e-06 8.144671e-05 1.266521e-04 1.268463e-04 
    72.5                1.272417e-07 1.707651e-05 7.036472e-06 4.875813e-07 7.338083e-06 1.169068e-08 1.014027e-05 7.911228e-07 9.037389e-07 1.099075e-05 1.998011e-05 2.000557e-05 
    73.5                0.000000e+00 1.301104e-06 3.397275e-07 1.440372e-08 3.460109e-07 1.053925e-09 4.928660e-07 3.248129e-08 3.776649e-08 5.099141e-07 1.377698e-06 1.378331e-06 
    74.5                0.000000e+00 0.000000e+00 0.000000e+00 0.000000e+00 0.000000e+00 0.000000e+00 0.000000e+00 0.000000e+00 0.000000e+00 0.000000e+00 0.000000e+00 0.000000e+00 
    75.5                0.000000e+00 0.000000e+00 0.000000e+00 0.000000e+00 0.000000e+00 0.000000e+00 0.000000e+00 0.000000e+00 0.000000e+00 0.000000e+00 0.000000e+00 0.000000e+00 
    76.5                0.000000e+00 0.000000e+00 0.000000e+00 0.000000e+00 0.000000e+00 0.000000e+00 0.000000e+00 0.000000e+00 0.000000e+00 0.000000e+00 0.000000e+00 0.000000e+00 
    77.5                0.000000e+00 0.000000e+00 0.000000e+00 0.000000e+00 0.000000e+00 0.000000e+00 0.000000e+00 0.000000e+00 0.000000e+00 0.000000e+00 0.000000e+00 0.000000e+00 
    78.5                0.000000e+00 0.000000e+00 0.000000e+00 0.000000e+00 0.000000e+00 0.000000e+00 0.000000e+00 0.000000e+00 0.000000e+00 0.000000e+00 0.000000e+00 0.000000e+00 
    79.5                0.000000e+00 0.000000e+00 0.000000e+00 0.000000e+00 0.000000e+00 0.000000e+00 0.000000e+00 0.000000e+00 0.000000e+00 0.000000e+00 0.000000e+00 0.000000e+00 


