# 80 rows of flux data
# 12 columns of flux data
# 
# total cross-sectional flux  1.054978e+00 /m^2/yr
#
#                             +x ram      -x wake      +y port -y starboard    +z zenith     -z nadir        Earth          Sun     anti-Sun      rot (x)      rot (y)      rot (z) 
# average speed (km/s)         36.74        38.00        31.46        31.46        37.44        30.61        28.72        28.07        27.62        33.57        37.36        33.61 
# total flux (#/m2/yr)  2.620270e-01 2.196730e-01 3.290619e-01 3.290325e-01 4.630739e-01 3.844759e-04 2.907892e-03 1.761020e-01 1.635851e-01 8.720685e-01 7.456932e-01 8.812434e-01 
# velocity (km/s)
     0.5                0.000000e+00 0.000000e+00 0.000000e+00 0.000000e+00 0.000000e+00 0.000000e+00 0.000000e+00 0.000000e+00 0.000000e+00 0.000000e+00 0.000000e+00 0.000000e+00 
     1.5                0.000000e+00 0.000000e+00 0.000000e+00 0.000000e+00 0.000000e+00 0.000000e+00 0.000000e+00 0.000000e+00 0.000000e+00 0.000000e+00 0.000000e+00 0.000000e+00 
     2.5                2.524023e-05 1.198117e-04 7.136849e-05 7.138225e-05 1.560579e-04 6.808082e-08 7.649659e-07 8.186182e-05 7.167468e-05 2.375576e-04 2.391233e-04 2.264531e-04 
     3.5                3.129440e-04 4.722974e-04 3.385406e-04 3.384568e-04 8.163602e-04 3.687166e-07 3.526457e-06 4.302925e-04 3.849459e-04 1.172466e-03 1.265109e-03 1.146139e-03 
     4.5                9.130914e-04 8.482877e-04 7.915474e-04 7.916368e-04 1.757212e-03 8.767537e-07 7.753418e-06 9.625578e-04 9.094398e-04 2.612767e-03 2.775979e-03 2.617200e-03 
     5.5                1.593396e-03 1.271567e-03 1.378892e-03 1.379133e-03 2.786687e-03 1.556110e-06 1.341859e-05 1.611724e-03 1.542110e-03 4.332832e-03 4.457718e-03 4.387579e-03 
     6.5                2.298587e-03 1.657636e-03 2.133717e-03 2.133624e-03 3.813769e-03 2.500566e-06 2.137481e-05 2.265025e-03 2.204508e-03 6.333869e-03 6.128879e-03 6.425146e-03 
     7.5                2.892988e-03 2.039875e-03 2.926695e-03 2.926478e-03 4.741928e-03 3.427128e-06 2.907559e-05 2.876216e-03 2.801517e-03 8.313820e-03 7.633371e-03 8.437674e-03 
     8.5                3.444528e-03 2.386824e-03 3.720839e-03 3.721242e-03 5.562406e-03 4.525125e-06 3.831040e-05 3.425640e-03 3.370818e-03 1.023863e-02 8.991753e-03 1.039604e-02 
     9.5                3.877304e-03 2.657663e-03 4.473438e-03 4.472826e-03 6.262745e-03 5.445668e-06 4.596888e-05 3.920542e-03 3.846582e-03 1.199839e-02 1.010094e-02 1.214983e-02 
    10.5                4.230286e-03 2.970432e-03 5.221954e-03 5.221465e-03 6.865230e-03 6.470404e-06 5.435446e-05 4.398423e-03 4.287260e-03 1.368131e-02 1.110272e-02 1.386949e-02 
    11.5                4.623387e-03 3.211627e-03 6.114747e-03 6.114152e-03 7.477924e-03 7.759311e-06 6.545189e-05 4.893303e-03 4.737084e-03 1.564378e-02 1.208973e-02 1.581965e-02 
    12.5                4.904586e-03 3.393249e-03 6.773717e-03 6.773693e-03 7.916670e-03 8.628769e-06 7.255408e-05 5.243927e-03 5.044661e-03 1.705212e-02 1.280417e-02 1.724568e-02 
    13.5                5.089976e-03 3.431463e-03 7.388995e-03 7.387655e-03 8.076925e-03 9.899765e-06 8.315369e-05 5.394985e-03 5.180817e-03 1.826280e-02 1.310887e-02 1.847173e-02 
    14.5                4.984630e-03 3.565405e-03 7.718866e-03 7.718011e-03 8.125798e-03 1.050426e-05 8.809960e-05 5.463403e-03 5.226434e-03 1.887691e-02 1.317118e-02 1.906858e-02 
    15.5                5.156789e-03 3.631099e-03 8.340286e-03 8.340164e-03 8.355636e-03 1.134717e-05 9.490126e-05 5.599053e-03 5.331556e-03 2.010152e-02 1.354299e-02 2.029031e-02 
    16.5                5.112149e-03 3.683802e-03 8.505407e-03 8.503731e-03 8.338080e-03 1.170110e-05 9.782823e-05 5.615605e-03 5.342409e-03 2.037423e-02 1.353751e-02 2.056477e-02 
    17.5                5.128840e-03 3.697180e-03 8.744576e-03 8.744039e-03 8.379061e-03 1.202726e-05 1.001556e-04 5.589369e-03 5.297879e-03 2.080541e-02 1.359374e-02 2.098834e-02 
    18.5                5.094663e-03 3.766222e-03 9.001345e-03 9.001167e-03 8.412333e-03 1.229089e-05 1.018339e-04 5.563203e-03 5.247889e-03 2.125559e-02 1.364869e-02 2.144105e-02 
    19.5                5.052686e-03 3.746908e-03 9.050819e-03 9.047956e-03 8.407741e-03 1.209057e-05 9.976176e-05 5.453168e-03 5.125723e-03 2.129387e-02 1.359851e-02 2.143545e-02 
    20.5                4.972551e-03 3.692910e-03 8.934951e-03 8.933800e-03 8.203317e-03 1.176697e-05 9.679219e-05 5.263114e-03 4.936447e-03 2.091964e-02 1.332869e-02 2.111307e-02 
    21.5                4.820255e-03 3.744744e-03 9.002618e-03 9.002048e-03 8.148690e-03 1.187309e-05 9.738299e-05 5.123705e-03 4.789021e-03 2.098491e-02 1.320969e-02 2.113834e-02 
    22.5                4.885047e-03 3.667813e-03 9.138655e-03 9.138225e-03 8.180443e-03 1.189983e-05 9.730187e-05 5.005379e-03 4.656274e-03 2.120320e-02 1.322424e-02 2.134124e-02 
    23.5                4.661170e-03 3.519500e-03 8.645083e-03 8.644395e-03 7.732976e-03 1.113188e-05 9.035664e-05 4.685560e-03 4.359384e-03 2.003094e-02 1.257861e-02 2.020423e-02 
    24.5                4.388296e-03 3.433868e-03 8.271938e-03 8.271002e-03 7.443849e-03 1.032406e-05 8.359679e-05 4.407748e-03 4.093220e-03 1.915226e-02 1.206312e-02 1.929279e-02 
    25.5                4.292431e-03 3.343203e-03 8.066991e-03 8.066874e-03 7.242594e-03 9.790524e-06 7.873237e-05 4.171896e-03 3.864084e-03 1.863876e-02 1.175681e-02 1.878438e-02 
    26.5                4.104800e-03 3.315539e-03 7.756868e-03 7.755439e-03 7.081121e-03 9.104428e-06 7.286350e-05 3.953285e-03 3.653301e-03 1.794926e-02 1.145965e-02 1.806920e-02 
    27.5                4.037616e-03 3.181476e-03 7.435708e-03 7.435815e-03 6.888643e-03 8.399176e-06 6.672502e-05 3.735757e-03 3.448699e-03 1.721280e-02 1.114835e-02 1.733432e-02 
    28.5                3.850868e-03 3.108492e-03 7.104688e-03 7.103888e-03 6.624867e-03 7.848712e-06 6.203638e-05 3.462252e-03 3.189072e-03 1.643219e-02 1.073364e-02 1.656103e-02 
    29.5                3.705295e-03 2.885362e-03 6.720640e-03 6.720444e-03 6.287829e-03 7.309021e-06 5.715879e-05 3.143815e-03 2.886249e-03 1.552991e-02 1.017321e-02 1.564268e-02 
    30.5                3.433165e-03 2.813973e-03 6.406541e-03 6.406162e-03 5.930163e-03 6.915197e-06 5.392914e-05 2.913522e-03 2.672725e-03 1.475108e-02 9.622239e-03 1.486823e-02 
    31.5                3.318462e-03 2.800402e-03 6.199246e-03 6.198496e-03 5.850447e-03 6.466532e-06 4.983165e-05 2.741286e-03 2.508127e-03 1.428889e-02 9.457093e-03 1.439243e-02 
    32.5                3.227715e-03 2.686729e-03 5.814983e-03 5.814649e-03 5.630295e-03 5.929195e-06 4.547280e-05 2.517681e-03 2.300048e-03 1.346250e-02 9.120605e-03 1.356579e-02 
    33.5                3.126374e-03 2.747043e-03 5.610072e-03 5.609818e-03 5.606517e-03 5.563356e-06 4.212070e-05 2.331658e-03 2.119145e-03 1.305697e-02 9.066475e-03 1.315598e-02 
    34.5                3.183709e-03 2.747350e-03 5.643930e-03 5.643341e-03 5.692370e-03 5.471366e-06 4.076591e-05 2.243812e-03 2.031101e-03 1.313341e-02 9.177526e-03 1.322805e-02 
    35.5                3.062611e-03 2.645917e-03 5.191259e-03 5.190917e-03 5.457783e-03 4.993431e-06 3.687118e-05 2.093104e-03 1.899060e-03 1.218843e-02 8.818268e-03 1.228449e-02 
    36.5                2.959492e-03 2.702938e-03 5.059621e-03 5.058835e-03 5.455781e-03 4.773595e-06 3.507158e-05 1.959221e-03 1.769517e-03 1.194149e-02 8.781166e-03 1.201569e-02 
    37.5                3.090123e-03 2.781459e-03 5.112131e-03 5.111501e-03 5.592835e-03 4.842993e-06 3.504683e-05 1.900969e-03 1.711310e-03 1.210196e-02 9.056662e-03 1.222608e-02 
    38.5                2.996140e-03 2.980977e-03 4.989350e-03 4.988691e-03 5.734983e-03 4.650741e-06 3.329490e-05 1.826842e-03 1.639625e-03 1.196987e-02 9.243985e-03 1.206091e-02 
    39.5                3.222796e-03 2.867674e-03 4.940627e-03 4.940204e-03 5.911594e-03 4.488107e-06 3.206430e-05 1.773420e-03 1.586493e-03 1.198071e-02 9.469850e-03 1.204292e-02 
    40.5                3.174115e-03 2.955750e-03 4.846545e-03 4.845775e-03 5.864279e-03 4.478575e-06 3.137792e-05 1.700946e-03 1.521070e-03 1.177916e-02 9.472704e-03 1.190719e-02 
    41.5                3.203959e-03 3.259068e-03 4.857565e-03 4.857862e-03 6.223616e-03 4.429809e-06 3.061992e-05 1.682825e-03 1.499116e-03 1.202501e-02 1.001138e-02 1.212695e-02 
    42.5                3.483310e-03 3.159430e-03 4.725435e-03 4.723958e-03 6.462874e-03 4.293983e-06 2.931105e-05 1.672756e-03 1.490652e-03 1.196043e-02 1.034413e-02 1.202978e-02 
    43.5                3.387546e-03 3.342382e-03 4.500910e-03 4.501565e-03 6.392494e-03 4.235763e-06 2.844916e-05 1.620632e-03 1.446919e-03 1.155601e-02 1.035629e-02 1.172605e-02 
    44.5                3.537876e-03 3.672865e-03 4.681938e-03 4.682164e-03 7.003055e-03 4.302474e-06 2.868742e-05 1.672492e-03 1.487997e-03 1.224525e-02 1.121733e-02 1.233030e-02 
    45.5                3.902470e-03 3.646764e-03 4.698748e-03 4.699268e-03 7.244601e-03 4.382896e-06 2.885830e-05 1.674100e-03 1.490525e-03 1.242113e-02 1.167082e-02 1.258549e-02 
    46.5                3.819223e-03 3.743548e-03 4.570595e-03 4.570513e-03 7.317699e-03 4.235625e-06 2.792719e-05 1.637055e-03 1.457159e-03 1.227535e-02 1.174015e-02 1.240386e-02 
    47.5                3.959919e-03 3.989420e-03 4.528796e-03 4.529401e-03 7.631055e-03 4.307793e-06 2.776780e-05 1.657739e-03 1.476411e-03 1.245850e-02 1.229188e-02 1.263772e-02 
    48.5                4.053745e-03 4.372279e-03 4.509523e-03 4.508789e-03 8.183145e-03 4.380787e-06 2.807122e-05 1.708259e-03 1.521695e-03 1.284930e-02 1.310346e-02 1.295733e-02 
    49.5                4.484990e-03 4.800971e-03 4.652901e-03 4.652758e-03 8.885398e-03 4.655120e-06 2.931935e-05 1.773229e-03 1.577164e-03 1.357805e-02 1.432813e-02 1.382046e-02 
    50.5                4.772636e-03 5.494586e-03 4.816301e-03 4.816523e-03 9.906310e-03 4.928533e-06 3.053187e-05 1.865137e-03 1.653726e-03 1.458939e-02 1.590971e-02 1.481729e-02 
    51.5                5.448821e-03 6.045739e-03 4.966257e-03 4.966205e-03 1.127091e-02 5.222030e-06 3.207377e-05 1.959978e-03 1.729228e-03 1.589343e-02 1.795591e-02 1.600295e-02 
    52.5                6.141951e-03 6.047076e-03 4.863561e-03 4.864517e-03 1.190663e-02 5.355297e-06 3.249179e-05 2.009240e-03 1.774046e-03 1.628109e-02 1.899850e-02 1.643746e-02 
    53.5                6.251785e-03 6.125871e-03 4.639001e-03 4.637495e-03 1.206164e-02 5.265213e-06 3.194964e-05 2.022917e-03 1.792749e-03 1.611350e-02 1.926971e-02 1.630346e-02 
    54.5                6.367093e-03 5.775808e-03 4.386020e-03 4.385614e-03 1.191522e-02 5.094392e-06 3.067539e-05 1.999135e-03 1.778145e-03 1.565218e-02 1.897682e-02 1.577314e-02 
    55.5                6.297625e-03 5.819487e-03 4.182682e-03 4.182099e-03 1.164895e-02 5.057291e-06 3.023587e-05 1.966071e-03 1.755334e-03 1.516272e-02 1.873406e-02 1.547951e-02 
    56.5                6.157338e-03 5.546637e-03 3.969933e-03 3.968689e-03 1.143717e-02 4.768464e-06 2.836050e-05 1.917534e-03 1.715814e-03 1.469457e-02 1.824160e-02 1.486926e-02 
    57.5                5.930555e-03 5.064004e-03 3.600639e-03 3.601007e-03 1.066023e-02 4.482833e-06 2.662330e-05 1.816545e-03 1.633611e-03 1.357121e-02 1.708171e-02 1.380000e-02 
    58.5                5.456131e-03 4.855558e-03 3.254461e-03 3.253589e-03 9.997588e-03 4.132923e-06 2.447386e-05 1.679529e-03 1.512470e-03 1.256510e-02 1.601129e-02 1.277603e-02 
    59.5                5.155364e-03 4.628771e-03 2.996140e-03 2.995243e-03 9.536768e-03 3.853521e-06 2.259194e-05 1.543409e-03 1.387758e-03 1.183326e-02 1.522748e-02 1.200853e-02 
    60.5                4.974934e-03 4.205450e-03 2.707352e-03 2.706724e-03 8.912348e-03 3.582018e-06 2.100053e-05 1.380009e-03 1.237940e-03 1.094839e-02 1.426339e-02 1.113342e-02 
    61.5                4.509173e-03 3.664777e-03 2.315169e-03 2.315314e-03 8.066742e-03 3.133346e-06 1.821663e-05 1.209019e-03 1.083939e-03 9.743729e-03 1.280967e-02 9.807865e-03 
    62.5                4.161145e-03 3.001961e-03 1.918316e-03 1.917315e-03 6.901691e-03 2.752702e-06 1.598269e-05 1.030401e-03 9.261105e-04 8.269582e-03 1.108559e-02 8.452910e-03 
    63.5                3.399669e-03 2.446133e-03 1.511502e-03 1.511540e-03 5.643629e-03 2.213823e-06 1.279762e-05 8.460157e-04 7.628134e-04 6.688843e-03 9.056696e-03 6.845108e-03 
    64.5                2.799927e-03 1.957679e-03 1.195927e-03 1.195001e-03 4.579800e-03 1.806108e-06 1.042417e-05 6.704476e-04 6.044874e-04 5.392838e-03 7.362612e-03 5.526578e-03 
    65.5                2.224156e-03 1.494102e-03 9.004351e-04 9.000292e-04 3.615482e-03 1.402168e-06 7.989633e-06 5.065348e-04 4.556473e-04 4.207882e-03 5.782532e-03 4.282899e-03 
    66.5                1.782610e-03 1.061581e-03 6.535952e-04 6.531802e-04 2.743720e-03 1.049684e-06 6.038894e-06 3.637489e-04 3.260407e-04 3.161949e-03 4.404833e-03 3.237747e-03 
    67.5                1.308569e-03 6.794007e-04 4.290258e-04 4.288126e-04 1.897081e-03 7.364532e-07 4.211750e-06 2.370384e-04 2.117008e-04 2.162939e-03 3.063527e-03 2.234598e-03 
    68.5                8.802253e-04 3.805243e-04 2.519620e-04 2.516254e-04 1.197763e-03 4.704861e-07 2.657447e-06 1.369428e-04 1.213213e-04 1.347183e-03 1.938973e-03 1.397002e-03 
    69.5                5.387724e-04 1.680782e-04 1.269627e-04 1.267476e-04 6.550587e-04 2.609860e-07 1.485933e-06 6.704419e-05 5.873833e-05 7.274788e-04 1.073117e-03 7.693754e-04 
    70.5                2.699840e-04 4.285470e-05 4.841244e-05 4.827964e-05 2.759825e-04 1.211844e-07 6.796251e-07 2.555019e-05 2.215957e-05 3.028683e-04 4.644746e-04 3.337859e-04 
    71.5                9.791798e-05 5.622486e-06 1.217839e-05 1.212620e-05 7.452165e-05 4.427882e-08 2.520036e-07 6.484415e-06 5.603595e-06 8.156501e-05 1.405434e-04 1.074843e-04 
    72.5                1.712704e-05 1.185008e-07 1.389921e-06 1.378049e-06 1.023550e-05 8.654693e-09 4.969420e-08 9.103152e-07 7.958242e-07 1.105676e-05 2.184839e-05 1.753972e-05 
    73.5                1.323000e-06 0.000000e+00 4.620996e-08 4.515536e-08 5.151673e-07 8.468812e-10 4.506677e-09 3.889192e-08 3.335065e-08 5.395523e-07 1.476673e-06 1.327481e-06 
    74.5                0.000000e+00 0.000000e+00 0.000000e+00 0.000000e+00 0.000000e+00 0.000000e+00 0.000000e+00 0.000000e+00 0.000000e+00 0.000000e+00 0.000000e+00 0.000000e+00 
    75.5                0.000000e+00 0.000000e+00 0.000000e+00 0.000000e+00 0.000000e+00 0.000000e+00 0.000000e+00 0.000000e+00 0.000000e+00 0.000000e+00 0.000000e+00 0.000000e+00 
    76.5                0.000000e+00 0.000000e+00 0.000000e+00 0.000000e+00 0.000000e+00 0.000000e+00 0.000000e+00 0.000000e+00 0.000000e+00 0.000000e+00 0.000000e+00 0.000000e+00 
    77.5                0.000000e+00 0.000000e+00 0.000000e+00 0.000000e+00 0.000000e+00 0.000000e+00 0.000000e+00 0.000000e+00 0.000000e+00 0.000000e+00 0.000000e+00 0.000000e+00 
    78.5                0.000000e+00 0.000000e+00 0.000000e+00 0.000000e+00 0.000000e+00 0.000000e+00 0.000000e+00 0.000000e+00 0.000000e+00 0.000000e+00 0.000000e+00 0.000000e+00 
    79.5                0.000000e+00 0.000000e+00 0.000000e+00 0.000000e+00 0.000000e+00 0.000000e+00 0.000000e+00 0.000000e+00 0.000000e+00 0.000000e+00 0.000000e+00 0.000000e+00 


