# 80 rows of flux data
# 12 columns of flux data
# 
# total cross-sectional flux  1.045671e+00 /m^2/yr
#
#                       +x vernal eq.           -x           +y           -y +z eclip. N. -z eclip. S.        Earth          Sun     anti-Sun      rot (x)      rot (y)      rot (z) 
# average speed (km/s)         37.56        37.66        37.61        37.64        43.96        30.63        39.60        27.80        28.19        33.94        33.93        37.62 
# total flux (#/m2/yr)  2.285635e-01 2.466704e-01 2.353223e-01 2.392955e-01 5.718971e-02 5.888595e-01 3.466881e-01 1.675031e-01 1.708606e-01 8.664227e-01 8.667000e-01 7.459789e-01 
# velocity (km/s)
     0.5                0.000000e+00 0.000000e+00 0.000000e+00 0.000000e+00 0.000000e+00 0.000000e+00 0.000000e+00 0.000000e+00 0.000000e+00 0.000000e+00 0.000000e+00 0.000000e+00 
     1.5                0.000000e+00 0.000000e+00 0.000000e+00 0.000000e+00 0.000000e+00 0.000000e+00 0.000000e+00 0.000000e+00 0.000000e+00 0.000000e+00 0.000000e+00 0.000000e+00 
     2.5                9.222213e-05 6.860921e-05 7.760357e-05 8.175664e-05 1.786974e-05 1.376914e-04 1.334980e-04 7.955928e-05 8.303828e-05 2.466151e-04 2.476145e-04 2.512595e-04 
     3.5                4.580540e-04 3.984199e-04 4.328198e-04 4.260103e-04 1.083413e-04 6.522814e-04 7.154618e-04 4.222547e-04 4.486146e-04 1.263991e-03 1.263459e-03 1.346605e-03 
     4.5                9.126242e-04 9.158648e-04 9.164497e-04 9.126057e-04 2.363261e-04 1.443063e-03 1.496087e-03 9.546035e-04 9.876837e-04 2.738918e-03 2.738393e-03 2.871913e-03 
     5.5                1.397637e-03 1.471951e-03 1.436483e-03 1.442188e-03 3.591704e-04 2.460495e-03 2.297371e-03 1.586999e-03 1.619236e-03 4.444208e-03 4.440392e-03 4.514795e-03 
     6.5                1.849942e-03 2.052582e-03 1.939520e-03 1.970815e-03 4.752506e-04 3.756614e-03 3.056153e-03 2.237193e-03 2.256207e-03 6.360192e-03 6.357384e-03 6.136804e-03 
     7.5                2.252735e-03 2.574921e-03 2.390263e-03 2.443746e-03 5.599234e-04 5.181806e-03 3.691105e-03 2.831327e-03 2.836251e-03 8.274838e-03 8.269642e-03 7.587621e-03 
     8.5                2.645683e-03 3.035062e-03 2.792401e-03 2.864890e-03 6.267461e-04 6.602150e-03 4.238646e-03 3.379076e-03 3.374102e-03 1.010021e-02 1.011604e-02 8.903831e-03 
     9.5                2.992190e-03 3.368663e-03 3.140386e-03 3.210814e-03 6.797687e-04 7.984811e-03 4.689406e-03 3.855898e-03 3.852948e-03 1.178898e-02 1.179935e-02 9.984723e-03 
    10.5                3.309373e-03 3.660916e-03 3.454577e-03 3.524505e-03 7.137105e-04 9.370526e-03 5.041508e-03 4.301137e-03 4.309673e-03 1.341422e-02 1.341510e-02 1.095667e-02 
    11.5                3.616837e-03 3.969410e-03 3.749017e-03 3.817667e-03 7.408408e-04 1.100774e-02 5.390412e-03 4.755147e-03 4.775437e-03 1.523943e-02 1.525328e-02 1.190071e-02 
    12.5                3.758151e-03 4.260938e-03 3.958185e-03 4.061089e-03 7.392234e-04 1.227759e-02 5.594118e-03 5.077349e-03 5.101608e-03 1.660942e-02 1.661242e-02 1.259593e-02 
    13.5                3.818187e-03 4.394412e-03 4.019341e-03 4.141792e-03 7.130203e-04 1.339552e-02 5.626584e-03 5.205968e-03 5.230907e-03 1.767195e-02 1.770173e-02 1.285843e-02 
    14.5                3.880531e-03 4.357008e-03 4.056855e-03 4.157715e-03 6.996206e-04 1.402699e-02 5.611086e-03 5.258950e-03 5.287947e-03 1.824453e-02 1.825964e-02 1.292099e-02 
    15.5                3.988050e-03 4.479840e-03 4.158866e-03 4.263943e-03 6.747983e-04 1.522847e-02 5.663874e-03 5.369602e-03 5.398292e-03 1.939473e-02 1.941239e-02 1.326373e-02 
    16.5                3.989647e-03 4.445742e-03 4.172202e-03 4.271131e-03 6.635712e-04 1.554763e-02 5.615695e-03 5.384254e-03 5.412418e-03 1.965687e-02 1.965613e-02 1.325597e-02 
    17.5                3.995687e-03 4.494714e-03 4.177559e-03 4.286194e-03 6.404740e-04 1.604328e-02 5.579587e-03 5.351843e-03 5.379728e-03 2.007083e-02 2.008293e-02 1.331381e-02 
    18.5                4.054392e-03 4.461042e-03 4.207857e-03 4.296555e-03 6.200416e-04 1.656942e-02 5.535292e-03 5.314865e-03 5.342679e-03 2.051825e-02 2.052094e-02 1.336737e-02 
    19.5                4.042357e-03 4.452743e-03 4.192050e-03 4.279540e-03 6.123937e-04 1.670716e-02 5.490495e-03 5.201475e-03 5.231770e-03 2.056808e-02 2.057523e-02 1.332874e-02 
    20.5                3.939223e-03 4.365119e-03 4.108513e-03 4.200501e-03 5.579405e-04 1.655830e-02 5.275413e-03 5.012473e-03 5.039338e-03 2.024490e-02 2.024466e-02 1.304936e-02 
    21.5                3.967555e-03 4.268815e-03 4.079553e-03 4.146744e-03 5.383355e-04 1.670703e-02 5.189125e-03 4.873148e-03 4.898595e-03 2.028218e-02 2.028327e-02 1.293042e-02 
    22.5                3.918666e-03 4.321762e-03 4.085715e-03 4.173632e-03 5.200824e-04 1.701404e-02 5.149322e-03 4.752289e-03 4.776891e-03 2.051826e-02 2.050452e-02 1.295578e-02 
    23.5                3.721197e-03 4.149512e-03 3.859084e-03 3.954318e-03 4.840435e-04 1.612002e-02 4.843105e-03 4.449636e-03 4.471939e-03 1.939969e-02 1.942649e-02 1.231982e-02 
    24.5                3.651943e-03 3.877757e-03 3.741613e-03 3.790595e-03 4.511807e-04 1.547436e-02 4.622878e-03 4.187822e-03 4.208255e-03 1.858697e-02 1.859049e-02 1.182929e-02 
    25.5                3.538879e-03 3.786081e-03 3.644929e-03 3.701000e-03 4.281635e-04 1.512925e-02 4.470085e-03 3.957169e-03 3.978059e-03 1.811912e-02 1.811341e-02 1.152106e-02 
    26.5                3.468091e-03 3.684909e-03 3.550597e-03 3.598644e-03 4.099263e-04 1.457457e-02 4.345307e-03 3.746590e-03 3.767635e-03 1.746123e-02 1.746357e-02 1.123320e-02 
    27.5                3.321784e-03 3.648816e-03 3.440451e-03 3.513847e-03 3.864724e-04 1.401399e-02 4.184128e-03 3.542501e-03 3.561263e-03 1.678006e-02 1.678601e-02 1.093276e-02 
    28.5                3.224758e-03 3.482043e-03 3.319656e-03 3.377811e-03 3.569044e-04 1.341998e-02 3.982339e-03 3.279075e-03 3.296734e-03 1.604052e-02 1.604851e-02 1.052755e-02 
    29.5                3.009898e-03 3.336497e-03 3.141248e-03 3.213607e-03 3.184699e-04 1.272569e-02 3.732772e-03 2.971274e-03 2.986951e-03 1.516723e-02 1.516895e-02 9.975404e-03 
    30.5                2.908020e-03 3.122338e-03 2.970592e-03 3.019898e-03 3.042750e-04 1.213963e-02 3.506083e-03 2.755211e-03 2.769603e-03 1.441541e-02 1.442948e-02 9.441027e-03 
    31.5                2.901073e-03 3.001707e-03 2.943060e-03 2.965471e-03 2.770990e-04 1.178465e-02 3.406936e-03 2.589895e-03 2.602860e-03 1.398605e-02 1.398185e-02 9.280009e-03 
    32.5                2.805059e-03 2.941477e-03 2.813161e-03 2.844621e-03 2.576508e-04 1.107658e-02 3.260878e-03 2.376329e-03 2.388802e-03 1.318546e-02 1.321383e-02 8.958420e-03 
    33.5                2.841600e-03 2.890668e-03 2.802550e-03 2.812336e-03 2.490645e-04 1.070375e-02 3.229855e-03 2.195196e-03 2.208192e-03 1.279475e-02 1.284376e-02 8.911486e-03 
    34.5                2.814997e-03 2.971300e-03 2.836487e-03 2.873231e-03 2.462816e-04 1.079430e-02 3.243723e-03 2.111541e-03 2.123410e-03 1.289713e-02 1.293330e-02 9.030985e-03 
    35.5                2.730766e-03 2.840484e-03 2.745966e-03 2.770397e-03 2.613927e-04 9.923529e-03 3.136985e-03 1.976697e-03 1.989192e-03 1.201610e-02 1.203770e-02 8.706955e-03 
    36.5                2.733170e-03 2.736933e-03 2.779925e-03 2.781150e-03 2.586142e-04 9.669286e-03 3.130468e-03 1.843930e-03 1.857297e-03 1.179447e-02 1.175167e-02 8.662915e-03 
    37.5                2.689607e-03 2.977815e-03 2.828499e-03 2.892544e-03 2.833900e-04 9.762962e-03 3.219556e-03 1.785284e-03 1.799901e-03 1.198586e-02 1.195881e-02 8.946503e-03 
    38.5                2.789455e-03 3.084945e-03 2.877519e-03 2.949768e-03 3.591390e-04 9.496603e-03 3.392993e-03 1.717000e-03 1.736753e-03 1.188319e-02 1.190093e-02 9.192145e-03 
    39.5                2.883093e-03 3.155125e-03 2.981210e-03 3.042232e-03 4.238756e-04 9.388982e-03 3.565563e-03 1.668944e-03 1.691553e-03 1.195481e-02 1.195707e-02 9.471887e-03 
    40.5                3.014464e-03 2.980078e-03 3.040930e-03 3.035207e-03 4.275251e-04 9.209939e-03 3.530796e-03 1.600683e-03 1.622831e-03 1.182515e-02 1.177662e-02 9.478672e-03 
    41.5                3.282907e-03 3.093400e-03 3.262973e-03 3.226295e-03 5.454572e-04 9.184293e-03 3.891617e-03 1.583292e-03 1.612624e-03 1.215741e-02 1.208878e-02 1.009797e-02 
    42.5                3.353838e-03 3.339483e-03 3.336990e-03 3.335634e-03 6.805714e-04 8.844485e-03 4.218798e-03 1.577851e-03 1.615604e-03 1.210957e-02 1.212793e-02 1.049564e-02 
    43.5                3.429273e-03 3.335324e-03 3.341020e-03 3.319975e-03 7.806255e-04 8.323758e-03 4.336465e-03 1.530615e-03 1.574333e-03 1.176716e-02 1.183150e-02 1.053905e-02 
    44.5                3.753329e-03 3.554894e-03 3.643754e-03 3.602497e-03 9.635964e-04 8.525651e-03 4.921196e-03 1.576982e-03 1.633129e-03 1.246180e-02 1.249411e-02 1.142929e-02 
    45.5                3.723228e-03 3.959056e-03 3.722634e-03 3.772946e-03 1.085162e-03 8.449121e-03 5.207666e-03 1.581430e-03 1.642997e-03 1.265207e-02 1.277935e-02 1.190687e-02 
    46.5                3.806777e-03 3.860892e-03 3.760996e-03 3.779265e-03 1.100462e-03 8.158816e-03 5.317764e-03 1.543891e-03 1.608209e-03 1.247005e-02 1.257538e-02 1.194300e-02 
    47.5                4.021417e-03 3.927906e-03 3.993949e-03 3.975165e-03 1.167592e-03 8.019182e-03 5.679231e-03 1.563266e-03 1.634137e-03 1.275082e-02 1.274008e-02 1.251033e-02 
    48.5                4.325052e-03 4.261785e-03 4.212553e-03 4.198384e-03 1.365665e-03 7.798227e-03 6.357067e-03 1.607983e-03 1.693323e-03 1.307033e-02 1.318877e-02 1.335096e-02 
    49.5                4.878739e-03 4.489126e-03 4.656026e-03 4.573672e-03 1.560150e-03 7.918351e-03 7.076229e-03 1.663411e-03 1.761784e-03 1.391131e-02 1.400949e-02 1.461118e-02 
    50.5                5.516623e-03 4.797217e-03 5.270360e-03 5.119300e-03 1.850737e-03 7.992561e-03 8.174551e-03 1.739673e-03 1.858439e-03 1.505187e-02 1.500311e-02 1.625392e-02 
    51.5                6.107383e-03 5.483824e-03 5.945928e-03 5.811459e-03 2.171906e-03 7.993274e-03 9.646674e-03 1.811983e-03 1.957567e-03 1.636900e-02 1.624928e-02 1.834657e-02 
    52.5                6.093413e-03 6.100642e-03 6.226190e-03 6.236521e-03 2.309423e-03 7.638615e-03 1.042147e-02 1.853124e-03 2.011986e-03 1.680379e-02 1.660777e-02 1.937625e-02 
    53.5                5.952881e-03 6.480977e-03 6.236202e-03 6.358589e-03 2.350895e-03 7.144626e-03 1.074383e-02 1.866475e-03 2.030540e-03 1.662873e-02 1.649899e-02 1.965857e-02 
    54.5                5.848339e-03 6.458053e-03 6.095673e-03 6.239073e-03 2.357708e-03 6.618487e-03 1.076750e-02 1.846025e-03 2.010210e-03 1.606753e-02 1.604085e-02 1.934767e-02 
    55.5                5.948270e-03 6.326069e-03 5.984274e-03 6.067641e-03 2.313139e-03 6.247262e-03 1.059306e-02 1.818495e-03 1.977830e-03 1.556579e-02 1.573339e-02 1.909826e-02 
    56.5                5.771109e-03 6.072473e-03 5.889239e-03 5.956240e-03 2.294139e-03 5.841471e-03 1.049143e-02 1.773761e-03 1.930519e-03 1.511427e-02 1.510332e-02 1.860352e-02 
    57.5                5.235868e-03 5.805947e-03 5.497330e-03 5.622939e-03 2.140391e-03 5.233055e-03 9.851362e-03 1.684793e-03 1.829670e-03 1.400893e-02 1.394909e-02 1.740604e-02 
    58.5                4.889862e-03 5.486674e-03 5.119886e-03 5.257077e-03 2.016196e-03 4.637078e-03 9.324686e-03 1.555952e-03 1.692053e-03 1.292525e-02 1.292423e-02 1.629780e-02 
    59.5                4.718879e-03 5.187950e-03 4.863098e-03 4.967533e-03 1.939445e-03 4.183424e-03 8.972330e-03 1.424853e-03 1.555166e-03 1.212506e-02 1.218649e-02 1.549582e-02 
    60.5                4.311502e-03 4.945939e-03 4.539654e-03 4.681855e-03 1.793761e-03 3.734627e-03 8.441596e-03 1.269021e-03 1.389977e-03 1.124007e-02 1.126882e-02 1.451287e-02 
    61.5                3.782791e-03 4.514465e-03 4.048356e-03 4.204497e-03 1.593515e-03 3.119530e-03 7.697188e-03 1.108496e-03 1.217520e-03 9.921670e-03 9.956331e-03 1.300305e-02 
    62.5                3.189214e-03 3.999019e-03 3.471806e-03 3.652278e-03 1.333708e-03 2.562448e-03 6.604563e-03 9.456857e-04 1.037294e-03 8.465838e-03 8.510510e-03 1.123825e-02 
    63.5                2.515314e-03 3.302248e-03 2.854703e-03 3.029216e-03 1.085532e-03 1.984850e-03 5.437465e-03 7.779075e-04 8.523545e-04 6.899457e-03 6.846568e-03 9.184660e-03 
    64.5                2.041924e-03 2.716452e-03 2.295147e-03 2.442758e-03 8.684940e-04 1.557074e-03 4.422030e-03 6.157847e-04 6.752444e-04 5.529973e-03 5.547794e-03 7.460312e-03 
    65.5                1.571726e-03 2.117900e-03 1.821128e-03 1.941965e-03 6.686598e-04 1.156077e-03 3.503882e-03 4.637159e-04 5.100791e-04 4.333905e-03 4.272246e-03 5.853851e-03 
    66.5                1.145490e-03 1.672798e-03 1.371123e-03 1.490565e-03 4.944211e-04 8.303864e-04 2.672469e-03 3.316179e-04 3.662949e-04 3.264570e-03 3.224687e-03 4.461774e-03 
    67.5                7.403297e-04 1.214407e-03 9.443755e-04 1.049222e-03 3.301213e-04 5.388937e-04 1.854399e-03 2.151436e-04 2.387322e-04 2.246201e-03 2.211433e-03 3.101137e-03 
    68.5                4.223800e-04 8.232153e-04 5.824010e-04 6.695647e-04 1.975650e-04 3.120015e-04 1.176074e-03 1.231555e-04 1.378210e-04 1.393024e-03 1.387186e-03 1.961772e-03 
    69.5                1.894046e-04 5.022690e-04 3.098797e-04 3.791875e-04 1.007145e-04 1.555531e-04 6.445642e-04 5.956945e-05 6.744384e-05 7.563967e-04 7.570817e-04 1.083682e-03 
    70.5                5.823934e-05 2.492389e-04 1.238918e-04 1.656387e-04 3.859460e-05 5.892306e-05 2.724508e-04 2.243412e-05 2.566918e-05 3.142657e-04 3.294542e-04 4.688658e-04 
    71.5                1.003646e-05 8.673734e-05 3.281466e-05 4.999724e-05 9.364031e-06 1.495174e-05 7.325375e-05 5.651160e-06 6.490450e-06 8.882757e-05 1.012268e-04 1.410426e-04 
    72.5                3.962606e-07 1.577217e-05 4.060892e-06 7.589988e-06 1.044006e-06 1.693119e-06 1.010168e-05 7.951493e-07 9.068407e-07 1.231254e-05 1.650097e-05 2.186555e-05 
    73.5                9.411612e-12 1.246286e-06 1.612330e-07 4.486374e-07 3.615828e-08 5.192362e-08 4.930776e-07 3.275499e-08 3.801020e-08 6.260154e-07 1.250829e-06 1.459184e-06 
    74.5                0.000000e+00 0.000000e+00 0.000000e+00 0.000000e+00 0.000000e+00 0.000000e+00 0.000000e+00 0.000000e+00 0.000000e+00 0.000000e+00 0.000000e+00 0.000000e+00 
    75.5                0.000000e+00 0.000000e+00 0.000000e+00 0.000000e+00 0.000000e+00 0.000000e+00 0.000000e+00 0.000000e+00 0.000000e+00 0.000000e+00 0.000000e+00 0.000000e+00 
    76.5                0.000000e+00 0.000000e+00 0.000000e+00 0.000000e+00 0.000000e+00 0.000000e+00 0.000000e+00 0.000000e+00 0.000000e+00 0.000000e+00 0.000000e+00 0.000000e+00 
    77.5                0.000000e+00 0.000000e+00 0.000000e+00 0.000000e+00 0.000000e+00 0.000000e+00 0.000000e+00 0.000000e+00 0.000000e+00 0.000000e+00 0.000000e+00 0.000000e+00 
    78.5                0.000000e+00 0.000000e+00 0.000000e+00 0.000000e+00 0.000000e+00 0.000000e+00 0.000000e+00 0.000000e+00 0.000000e+00 0.000000e+00 0.000000e+00 0.000000e+00 
    79.5                0.000000e+00 0.000000e+00 0.000000e+00 0.000000e+00 0.000000e+00 0.000000e+00 0.000000e+00 0.000000e+00 0.000000e+00 0.000000e+00 0.000000e+00 0.000000e+00 


