# 80 rows of flux data
# 12 columns of flux data
# 
# total cross-sectional flux  2.166692e+00 /m^2/yr
#
#                             +x ram      -x wake      +y port -y starboard    +z zenith     -z nadir        Earth          Sun     anti-Sun      rot (x)      rot (y)      rot (z) 
# average speed (km/s)         24.66        23.82        17.31        24.35        24.07        23.47        18.39        24.67        24.66        23.60        24.19        24.02 
# total flux (#/m2/yr)  7.216378e-01 6.154537e-01 1.018547e-01 7.322483e-01 1.086587e+00 6.176070e-04 2.577528e-02 9.529049e-01 9.393536e-01 1.451734e+00 1.916118e+00 1.728814e+00 
# velocity (km/s)
     0.5                0.000000e+00 0.000000e+00 0.000000e+00 0.000000e+00 0.000000e+00 0.000000e+00 0.000000e+00 0.000000e+00 0.000000e+00 0.000000e+00 0.000000e+00 0.000000e+00 
     1.5                0.000000e+00 0.000000e+00 0.000000e+00 0.000000e+00 0.000000e+00 0.000000e+00 0.000000e+00 0.000000e+00 0.000000e+00 0.000000e+00 0.000000e+00 0.000000e+00 
     2.5                0.000000e+00 5.332666e-06 6.571195e-07 7.183932e-07 2.397074e-06 1.204372e-09 1.519718e-07 1.918027e-06 1.817648e-07 2.994830e-06 6.059099e-06 5.591258e-06 
     3.5                3.189286e-06 1.230354e-04 1.846179e-05 4.949380e-05 9.486776e-05 4.670981e-08 4.537946e-06 5.701273e-05 2.342114e-05 1.256591e-04 1.745930e-04 1.546809e-04 
     4.5                1.251023e-04 5.562382e-04 1.110781e-04 3.187815e-04 5.458244e-04 3.100410e-07 2.769671e-05 2.951005e-04 1.773638e-04 7.575346e-04 9.680144e-04 8.786869e-04 
     5.5                5.857637e-04 1.497675e-03 3.941406e-04 1.116691e-03 1.825972e-03 9.971187e-07 9.594761e-05 9.705542e-04 7.393571e-04 2.609668e-03 3.083328e-03 2.829303e-03 
     6.5                1.952505e-03 2.804217e-03 8.862345e-04 2.541150e-03 4.058918e-03 2.446554e-06 2.151291e-04 2.198372e-03 1.886991e-03 5.883519e-03 6.959345e-03 6.442175e-03 
     7.5                3.629813e-03 4.961872e-03 1.727079e-03 4.544460e-03 7.248743e-03 4.652432e-06 4.140023e-04 3.989887e-03 3.708667e-03 1.064150e-02 1.250603e-02 1.169632e-02 
     8.5                6.109147e-03 7.377748e-03 2.583529e-03 7.333827e-03 1.157189e-02 7.204976e-06 6.081355e-04 6.414822e-03 6.292106e-03 1.689818e-02 1.977561e-02 1.839435e-02 
     9.5                9.319872e-03 9.375688e-03 3.648433e-03 1.024578e-02 1.613741e-02 1.016494e-05 8.569212e-04 9.387911e-03 9.387313e-03 2.363671e-02 2.749385e-02 2.562914e-02 
    10.5                1.259543e-02 1.139802e-02 4.956615e-03 1.282999e-02 2.024378e-02 1.366034e-05 1.162240e-03 1.286353e-02 1.281521e-02 3.000521e-02 3.493533e-02 3.285703e-02 
    11.5                1.483960e-02 1.307397e-02 6.088050e-03 1.509350e-02 2.390077e-02 1.618365e-05 1.417415e-03 1.631564e-02 1.616155e-02 3.553359e-02 4.091945e-02 3.859722e-02 
    12.5                1.701246e-02 1.432635e-02 6.910324e-03 1.666316e-02 2.660407e-02 1.799342e-05 1.594529e-03 1.937968e-02 1.917881e-02 3.943378e-02 4.575142e-02 4.318820e-02 
    13.5                1.827629e-02 1.626055e-02 7.369815e-03 1.826941e-02 2.920346e-02 1.941144e-05 1.697799e-03 2.233772e-02 2.210506e-02 4.296900e-02 5.031729e-02 4.739525e-02 
    14.5                1.992135e-02 1.794696e-02 7.304515e-03 2.027960e-02 3.208374e-02 2.044801e-05 1.664223e-03 2.547779e-02 2.519831e-02 4.656909e-02 5.523470e-02 5.163081e-02 
    15.5                2.163610e-02 1.949398e-02 6.933045e-03 2.216212e-02 3.463129e-02 2.138023e-05 1.568712e-03 2.845441e-02 2.814450e-02 4.952116e-02 5.984437e-02 5.549786e-02 
    16.5                2.347911e-02 2.088880e-02 6.567734e-03 2.400012e-02 3.702362e-02 2.254998e-05 1.492129e-03 3.126037e-02 3.092122e-02 5.233877e-02 6.430610e-02 5.930889e-02 
    17.5                2.481474e-02 2.223358e-02 6.075127e-03 2.549927e-02 3.893196e-02 2.337262e-05 1.403597e-03 3.376298e-02 3.340203e-02 5.438915e-02 6.794251e-02 6.229748e-02 
    18.5                2.602713e-02 2.320743e-02 5.399667e-03 2.690283e-02 4.060723e-02 2.381996e-05 1.264795e-03 3.597164e-02 3.558780e-02 5.603029e-02 7.100777e-02 6.469649e-02 
    19.5                2.719826e-02 2.393526e-02 4.934830e-03 2.794205e-02 4.186517e-02 2.435740e-05 1.177323e-03 3.775363e-02 3.734861e-02 5.726428e-02 7.352109e-02 6.674406e-02 
    20.5                2.780433e-02 2.459765e-02 4.415096e-03 2.865333e-02 4.266225e-02 2.443992e-05 1.065376e-03 3.898451e-02 3.855487e-02 5.780253e-02 7.516162e-02 6.797440e-02 
    21.5                2.825604e-02 2.560445e-02 3.867216e-03 2.955175e-02 4.366436e-02 2.476652e-05 9.722720e-04 4.033804e-02 3.986992e-02 5.862794e-02 7.710842e-02 6.946296e-02 
    22.5                2.914559e-02 2.622597e-02 3.517344e-03 3.053613e-02 4.493522e-02 2.501141e-05 8.955014e-04 4.173588e-02 4.122998e-02 5.987495e-02 7.931606e-02 7.123814e-02 
    23.5                2.991212e-02 2.646192e-02 3.038410e-03 3.106959e-02 4.548475e-02 2.513707e-05 8.077101e-04 4.253785e-02 4.200132e-02 6.013464e-02 8.054562e-02 7.213977e-02 
    24.5                3.007169e-02 2.658958e-02 2.645820e-03 3.124559e-02 4.557254e-02 2.500447e-05 7.300284e-04 4.278248e-02 4.221682e-02 5.983313e-02 8.084778e-02 7.225044e-02 
    25.5                3.011640e-02 2.646436e-02 2.246499e-03 3.126898e-02 4.544595e-02 2.467436e-05 6.505049e-04 4.272635e-02 4.213371e-02 5.923301e-02 8.068642e-02 7.193929e-02 
    26.5                2.997895e-02 2.579334e-02 1.926902e-03 3.085580e-02 4.474296e-02 2.408121e-05 5.815713e-04 4.208815e-02 4.148705e-02 5.795018e-02 7.949418e-02 7.075274e-02 
    27.5                2.935756e-02 2.513610e-02 1.629833e-03 3.005946e-02 4.349515e-02 2.343593e-05 5.177695e-04 4.097731e-02 4.037632e-02 5.602406e-02 7.750547e-02 6.891456e-02 
    28.5                2.840739e-02 2.428590e-02 1.390475e-03 2.916143e-02 4.213418e-02 2.243105e-05 4.605263e-04 3.957356e-02 3.897543e-02 5.398993e-02 7.499921e-02 6.658656e-02 
    29.5                2.752008e-02 2.315423e-02 1.150179e-03 2.803457e-02 4.043547e-02 2.146226e-05 4.053621e-04 3.791739e-02 3.732744e-02 5.156455e-02 7.206121e-02 6.391548e-02 
    30.5                2.625794e-02 2.189467e-02 9.553411e-04 2.663670e-02 3.837233e-02 2.031358e-05 3.572122e-04 3.587939e-02 3.531025e-02 4.871151e-02 6.843833e-02 6.064946e-02 
    31.5                2.485553e-02 2.042143e-02 7.636617e-04 2.505497e-02 3.604840e-02 1.899373e-05 3.075202e-04 3.356938e-02 3.302477e-02 4.554924e-02 6.432822e-02 5.695435e-02 
    32.5                2.324745e-02 1.872428e-02 6.111286e-04 2.324109e-02 3.340617e-02 1.753374e-05 2.648475e-04 3.093483e-02 3.042503e-02 4.203976e-02 5.962429e-02 5.274923e-02 
    33.5                2.145470e-02 1.681685e-02 4.828897e-04 2.117160e-02 3.040642e-02 1.595227e-05 2.260876e-04 2.800088e-02 2.753231e-02 3.813565e-02 5.432663e-02 4.804234e-02 
    34.5                1.937647e-02 1.491094e-02 3.788181e-04 1.895333e-02 2.720366e-02 1.425923e-05 1.915703e-04 2.489835e-02 2.447791e-02 3.401598e-02 4.864325e-02 4.300130e-02 
    35.5                1.726033e-02 1.301293e-02 2.898176e-04 1.671547e-02 2.397807e-02 1.257930e-05 1.599197e-04 2.180458e-02 2.143238e-02 2.989320e-02 4.291839e-02 3.792921e-02 
    36.5                1.512044e-02 1.117154e-02 2.100018e-04 1.452329e-02 2.081942e-02 1.089371e-05 1.298031e-04 1.877959e-02 1.845585e-02 2.587662e-02 3.726908e-02 3.292073e-02 
    37.5                1.307122e-02 9.386570e-03 1.513086e-04 1.239466e-02 1.775970e-02 9.293582e-06 1.049172e-04 1.588766e-02 1.561340e-02 2.201510e-02 3.181530e-02 2.809654e-02 
    38.5                1.106276e-02 7.629161e-03 1.044432e-04 1.032254e-02 1.478467e-02 7.719331e-06 8.278140e-05 1.310307e-02 1.287698e-02 1.828261e-02 2.648373e-02 2.337877e-02 
    39.5                9.139653e-03 5.929791e-03 6.936787e-05 8.304172e-03 1.188984e-02 6.223276e-06 6.368311e-05 1.044312e-02 1.026464e-02 1.467178e-02 2.132825e-02 1.882754e-02 
    40.5                7.243876e-03 4.382518e-03 4.405733e-05 6.384112e-03 9.138615e-03 4.814746e-06 4.730817e-05 7.955776e-03 7.822388e-03 1.125571e-02 1.643028e-02 1.450665e-02 
    41.5                5.480518e-03 3.091297e-03 2.658994e-05 4.675812e-03 6.692062e-03 3.564183e-06 3.374749e-05 5.781810e-03 5.687379e-03 8.228970e-03 1.207966e-02 1.067195e-02 
    42.5                3.937415e-03 2.063302e-03 1.521559e-05 3.264660e-03 4.671773e-03 2.499374e-06 2.292451e-05 3.996660e-03 3.933245e-03 5.736610e-03 8.447178e-03 7.463967e-03 
    43.5                2.707957e-03 1.235283e-03 8.156013e-06 2.135702e-03 3.056018e-03 1.647229e-06 1.467548e-05 2.589521e-03 2.550747e-03 3.748198e-03 5.540707e-03 4.897820e-03 
    44.5                1.719401e-03 6.422500e-04 4.087354e-06 1.255753e-03 1.796918e-03 9.988628e-07 8.768201e-06 1.518389e-03 1.498295e-03 2.201976e-03 3.293442e-03 2.917458e-03 
    45.5                9.602043e-04 2.661093e-04 1.800001e-06 6.356088e-04 9.095726e-04 5.315312e-07 4.618358e-06 7.695830e-04 7.609697e-04 1.113857e-03 1.692636e-03 1.503834e-03 
    46.5                4.484990e-04 7.798991e-05 6.891900e-07 2.568437e-04 3.676204e-04 2.380105e-07 2.068382e-06 3.173268e-04 3.150885e-04 4.500226e-04 7.097186e-04 6.349966e-04 
    47.5                1.547224e-04 1.521207e-05 2.130069e-07 7.551283e-05 1.081110e-04 8.255955e-08 7.176741e-07 9.708345e-05 9.706368e-05 1.323371e-04 2.214633e-04 2.002364e-04 
    48.5                3.739060e-05 1.359224e-06 4.568457e-08 1.520501e-05 2.177917e-05 2.037722e-08 1.729358e-07 2.074638e-05 2.090019e-05 2.665889e-05 4.836938e-05 4.432539e-05 
    49.5                5.213020e-06 1.187375e-08 6.313207e-09 1.639520e-06 2.350269e-06 3.060688e-09 2.555003e-08 2.539648e-06 2.589409e-06 2.878692e-06 6.081511e-06 5.700662e-06 
    50.5                1.506431e-07 0.000000e+00 2.018057e-10 3.135359e-08 4.503368e-08 9.467496e-11 8.353509e-10 6.490153e-08 6.685524e-08 5.527521e-08 1.606395e-07 1.557003e-07 
    51.5                0.000000e+00 0.000000e+00 0.000000e+00 0.000000e+00 0.000000e+00 0.000000e+00 0.000000e+00 0.000000e+00 0.000000e+00 0.000000e+00 0.000000e+00 0.000000e+00 
    52.5                0.000000e+00 0.000000e+00 0.000000e+00 0.000000e+00 0.000000e+00 0.000000e+00 0.000000e+00 0.000000e+00 0.000000e+00 0.000000e+00 0.000000e+00 0.000000e+00 
    53.5                0.000000e+00 0.000000e+00 0.000000e+00 0.000000e+00 0.000000e+00 0.000000e+00 0.000000e+00 0.000000e+00 0.000000e+00 0.000000e+00 0.000000e+00 0.000000e+00 
    54.5                0.000000e+00 0.000000e+00 0.000000e+00 0.000000e+00 0.000000e+00 0.000000e+00 0.000000e+00 0.000000e+00 0.000000e+00 0.000000e+00 0.000000e+00 0.000000e+00 
    55.5                0.000000e+00 0.000000e+00 0.000000e+00 0.000000e+00 0.000000e+00 0.000000e+00 0.000000e+00 0.000000e+00 0.000000e+00 0.000000e+00 0.000000e+00 0.000000e+00 
    56.5                0.000000e+00 0.000000e+00 0.000000e+00 0.000000e+00 0.000000e+00 0.000000e+00 0.000000e+00 0.000000e+00 0.000000e+00 0.000000e+00 0.000000e+00 0.000000e+00 
    57.5                0.000000e+00 0.000000e+00 0.000000e+00 0.000000e+00 0.000000e+00 0.000000e+00 0.000000e+00 0.000000e+00 0.000000e+00 0.000000e+00 0.000000e+00 0.000000e+00 
    58.5                0.000000e+00 0.000000e+00 0.000000e+00 0.000000e+00 0.000000e+00 0.000000e+00 0.000000e+00 0.000000e+00 0.000000e+00 0.000000e+00 0.000000e+00 0.000000e+00 
    59.5                0.000000e+00 0.000000e+00 0.000000e+00 0.000000e+00 0.000000e+00 0.000000e+00 0.000000e+00 0.000000e+00 0.000000e+00 0.000000e+00 0.000000e+00 0.000000e+00 
    60.5                0.000000e+00 0.000000e+00 0.000000e+00 0.000000e+00 0.000000e+00 0.000000e+00 0.000000e+00 0.000000e+00 0.000000e+00 0.000000e+00 0.000000e+00 0.000000e+00 
    61.5                0.000000e+00 0.000000e+00 0.000000e+00 0.000000e+00 0.000000e+00 0.000000e+00 0.000000e+00 0.000000e+00 0.000000e+00 0.000000e+00 0.000000e+00 0.000000e+00 
    62.5                0.000000e+00 0.000000e+00 0.000000e+00 0.000000e+00 0.000000e+00 0.000000e+00 0.000000e+00 0.000000e+00 0.000000e+00 0.000000e+00 0.000000e+00 0.000000e+00 
    63.5                0.000000e+00 0.000000e+00 0.000000e+00 0.000000e+00 0.000000e+00 0.000000e+00 0.000000e+00 0.000000e+00 0.000000e+00 0.000000e+00 0.000000e+00 0.000000e+00 
    64.5                0.000000e+00 0.000000e+00 0.000000e+00 0.000000e+00 0.000000e+00 0.000000e+00 0.000000e+00 0.000000e+00 0.000000e+00 0.000000e+00 0.000000e+00 0.000000e+00 
    65.5                0.000000e+00 0.000000e+00 0.000000e+00 0.000000e+00 0.000000e+00 0.000000e+00 0.000000e+00 0.000000e+00 0.000000e+00 0.000000e+00 0.000000e+00 0.000000e+00 
    66.5                0.000000e+00 0.000000e+00 0.000000e+00 0.000000e+00 0.000000e+00 0.000000e+00 0.000000e+00 0.000000e+00 0.000000e+00 0.000000e+00 0.000000e+00 0.000000e+00 
    67.5                0.000000e+00 0.000000e+00 0.000000e+00 0.000000e+00 0.000000e+00 0.000000e+00 0.000000e+00 0.000000e+00 0.000000e+00 0.000000e+00 0.000000e+00 0.000000e+00 
    68.5                0.000000e+00 0.000000e+00 0.000000e+00 0.000000e+00 0.000000e+00 0.000000e+00 0.000000e+00 0.000000e+00 0.000000e+00 0.000000e+00 0.000000e+00 0.000000e+00 
    69.5                0.000000e+00 0.000000e+00 0.000000e+00 0.000000e+00 0.000000e+00 0.000000e+00 0.000000e+00 0.000000e+00 0.000000e+00 0.000000e+00 0.000000e+00 0.000000e+00 
    70.5                0.000000e+00 0.000000e+00 0.000000e+00 0.000000e+00 0.000000e+00 0.000000e+00 0.000000e+00 0.000000e+00 0.000000e+00 0.000000e+00 0.000000e+00 0.000000e+00 
    71.5                0.000000e+00 0.000000e+00 0.000000e+00 0.000000e+00 0.000000e+00 0.000000e+00 0.000000e+00 0.000000e+00 0.000000e+00 0.000000e+00 0.000000e+00 0.000000e+00 
    72.5                0.000000e+00 0.000000e+00 0.000000e+00 0.000000e+00 0.000000e+00 0.000000e+00 0.000000e+00 0.000000e+00 0.000000e+00 0.000000e+00 0.000000e+00 0.000000e+00 
    73.5                0.000000e+00 0.000000e+00 0.000000e+00 0.000000e+00 0.000000e+00 0.000000e+00 0.000000e+00 0.000000e+00 0.000000e+00 0.000000e+00 0.000000e+00 0.000000e+00 
    74.5                0.000000e+00 0.000000e+00 0.000000e+00 0.000000e+00 0.000000e+00 0.000000e+00 0.000000e+00 0.000000e+00 0.000000e+00 0.000000e+00 0.000000e+00 0.000000e+00 
    75.5                0.000000e+00 0.000000e+00 0.000000e+00 0.000000e+00 0.000000e+00 0.000000e+00 0.000000e+00 0.000000e+00 0.000000e+00 0.000000e+00 0.000000e+00 0.000000e+00 
    76.5                0.000000e+00 0.000000e+00 0.000000e+00 0.000000e+00 0.000000e+00 0.000000e+00 0.000000e+00 0.000000e+00 0.000000e+00 0.000000e+00 0.000000e+00 0.000000e+00 
    77.5                0.000000e+00 0.000000e+00 0.000000e+00 0.000000e+00 0.000000e+00 0.000000e+00 0.000000e+00 0.000000e+00 0.000000e+00 0.000000e+00 0.000000e+00 0.000000e+00 
    78.5                0.000000e+00 0.000000e+00 0.000000e+00 0.000000e+00 0.000000e+00 0.000000e+00 0.000000e+00 0.000000e+00 0.000000e+00 0.000000e+00 0.000000e+00 0.000000e+00 
    79.5                0.000000e+00 0.000000e+00 0.000000e+00 0.000000e+00 0.000000e+00 0.000000e+00 0.000000e+00 0.000000e+00 0.000000e+00 0.000000e+00 0.000000e+00 0.000000e+00 


