# 80 rows of flux data
# 12 columns of flux data
# 
# total cross-sectional flux  2.289258e+00 /m^2/yr
#
#                             +x ram      -x wake      +y port -y starboard    +z zenith     -z nadir        Earth          Sun     anti-Sun      rot (x)      rot (y)      rot (z) 
# average speed (km/s)         24.49        24.49        17.76        23.97        24.62        23.48        24.48        25.01        25.01        24.03        24.55        24.12 
# total flux (#/m2/yr)  6.966030e-01 6.959780e-01 1.145132e-01 5.349858e-01 1.318127e+00 5.259477e-04 6.895546e-01 9.981864e-01 9.984261e-01 1.554477e+00 2.135694e+00 1.657084e+00 
# velocity (km/s)
     0.5                0.000000e+00 0.000000e+00 0.000000e+00 0.000000e+00 0.000000e+00 0.000000e+00 0.000000e+00 0.000000e+00 0.000000e+00 0.000000e+00 0.000000e+00 0.000000e+00 
     1.5                0.000000e+00 0.000000e+00 0.000000e+00 0.000000e+00 0.000000e+00 0.000000e+00 0.000000e+00 0.000000e+00 0.000000e+00 0.000000e+00 0.000000e+00 0.000000e+00 
     2.5                3.371322e-08 5.855279e-08 2.153594e-08 0.000000e+00 2.410782e-09 3.981276e-10 3.367119e-08 4.478810e-08 2.643465e-08 2.199596e-08 9.233714e-08 9.640594e-08 
     3.5                3.215854e-05 3.248183e-05 1.256643e-05 4.970236e-06 1.541075e-05 5.891655e-08 3.202191e-05 1.810258e-05 1.800828e-05 2.726236e-05 6.777084e-05 6.988746e-05 
     4.5                2.239173e-04 2.252788e-04 7.920130e-05 9.837517e-05 2.580580e-04 2.880390e-07 2.230681e-04 1.314455e-04 1.312849e-04 3.504948e-04 5.665608e-04 5.093670e-04 
     5.5                8.575501e-04 8.631927e-04 3.341824e-04 4.795274e-04 1.137376e-03 1.046611e-06 8.542122e-04 5.625082e-04 5.614641e-04 1.555084e-03 2.277938e-03 2.019222e-03 
     6.5                2.204649e-03 2.209659e-03 8.453625e-04 1.582330e-03 3.610574e-03 2.187582e-06 2.195398e-03 1.702608e-03 1.701995e-03 4.784583e-03 6.340318e-03 5.396923e-03 
     7.5                3.896826e-03 3.904994e-03 1.631008e-03 3.002470e-03 6.687090e-03 3.963283e-06 3.879068e-03 3.318987e-03 3.318214e-03 8.958821e-03 1.144897e-02 9.787595e-03 
     8.5                6.481352e-03 6.487056e-03 2.602591e-03 5.168975e-03 1.126787e-02 6.254299e-06 6.450357e-03 5.731459e-03 5.733761e-03 1.503057e-02 1.913970e-02 1.634712e-02 
     9.5                9.588307e-03 9.592191e-03 3.742523e-03 7.805890e-03 1.714776e-02 8.880595e-06 9.538923e-03 8.881718e-03 8.883948e-03 2.266960e-02 2.864806e-02 2.420134e-02 
    10.5                1.224882e-02 1.223939e-02 5.118614e-03 1.065143e-02 2.310114e-02 1.103858e-05 1.217981e-02 1.252007e-02 1.252292e-02 3.068580e-02 3.749799e-02 3.159659e-02 
    11.5                1.450456e-02 1.450026e-02 6.474293e-03 1.282933e-02 2.731158e-02 1.330642e-05 1.441002e-02 1.630413e-02 1.630657e-02 3.674866e-02 4.437972e-02 3.792570e-02 
    12.5                1.630274e-02 1.629276e-02 7.247505e-03 1.469529e-02 3.130027e-02 1.485256e-05 1.618414e-02 1.979198e-02 1.979745e-02 4.197412e-02 5.033932e-02 4.292877e-02 
    13.5                1.756847e-02 1.755391e-02 7.724555e-03 1.578699e-02 3.367580e-02 1.614615e-05 1.742714e-02 2.256156e-02 2.256630e-02 4.510798e-02 5.421724e-02 4.626839e-02 
    14.5                1.943312e-02 1.942001e-02 7.905775e-03 1.701113e-02 3.674303e-02 1.743649e-05 1.926450e-02 2.582585e-02 2.583071e-02 4.865084e-02 5.958146e-02 5.053053e-02 
    15.5                2.108047e-02 2.106877e-02 7.580599e-03 1.799091e-02 3.982864e-02 1.833119e-05 2.088733e-02 2.887769e-02 2.888467e-02 5.163885e-02 6.462885e-02 5.387606e-02 
    16.5                2.278665e-02 2.276831e-02 7.336144e-03 1.911107e-02 4.315847e-02 1.932820e-05 2.256693e-02 3.199910e-02 3.200620e-02 5.499999e-02 6.991255e-02 5.744358e-02 
    17.5                2.408546e-02 2.407152e-02 6.834815e-03 1.986187e-02 4.553007e-02 1.989836e-05 2.384454e-02 3.447449e-02 3.448145e-02 5.708570e-02 7.383964e-02 5.992180e-02 
    18.5                2.533479e-02 2.531831e-02 6.207566e-03 2.040765e-02 4.769007e-02 2.037416e-05 2.507248e-02 3.691836e-02 3.692656e-02 5.875174e-02 7.752086e-02 6.204930e-02 
    19.5                2.638367e-02 2.636365e-02 5.768011e-03 2.096969e-02 4.978556e-02 2.065014e-05 2.610237e-02 3.904205e-02 3.905196e-02 6.053911e-02 8.080040e-02 6.398099e-02 
    20.5                2.693046e-02 2.690990e-02 5.243693e-03 2.116540e-02 5.084217e-02 2.070598e-05 2.663828e-02 4.030997e-02 4.031942e-02 6.112151e-02 8.250403e-02 6.477091e-02 
    21.5                2.750667e-02 2.748944e-02 4.604140e-03 2.119774e-02 5.161300e-02 2.099910e-05 2.720458e-02 4.134176e-02 4.135267e-02 6.127385e-02 8.403392e-02 6.541060e-02 
    22.5                2.846212e-02 2.844285e-02 4.316302e-03 2.163109e-02 5.323951e-02 2.143701e-05 2.814648e-02 4.293495e-02 4.294495e-02 6.267749e-02 8.681642e-02 6.723688e-02 
    23.5                2.906916e-02 2.904901e-02 3.789391e-03 2.192464e-02 5.457503e-02 2.146278e-05 2.874395e-02 4.410067e-02 4.411123e-02 6.356885e-02 8.880926e-02 6.818011e-02 
    24.5                2.920289e-02 2.917972e-02 3.329155e-03 2.179323e-02 5.483026e-02 2.133492e-05 2.887423e-02 4.438391e-02 4.439397e-02 6.331729e-02 8.921919e-02 6.808277e-02 
    25.5                2.924322e-02 2.922026e-02 2.883912e-03 2.160153e-02 5.488638e-02 2.115316e-05 2.891436e-02 4.441815e-02 4.442809e-02 6.285960e-02 8.932281e-02 6.779706e-02 
    26.5                2.904991e-02 2.902564e-02 2.457266e-03 2.126369e-02 5.461520e-02 2.073881e-05 2.872328e-02 4.413774e-02 4.414811e-02 6.203680e-02 8.879213e-02 6.702184e-02 
    27.5                2.830261e-02 2.827586e-02 2.103833e-03 2.064830e-02 5.345425e-02 1.997661e-05 2.798481e-02 4.303715e-02 4.304899e-02 6.032923e-02 8.669295e-02 6.509962e-02 
    28.5                2.746389e-02 2.743838e-02 1.779356e-03 1.982686e-02 5.172334e-02 1.932408e-05 2.715700e-02 4.160992e-02 4.161877e-02 5.803583e-02 8.400905e-02 6.292724e-02 
    29.5                2.652881e-02 2.650221e-02 1.493350e-03 1.907565e-02 5.009596e-02 1.844811e-05 2.623388e-02 4.011372e-02 4.012420e-02 5.590101e-02 8.123622e-02 6.061342e-02 
    30.5                2.525396e-02 2.522813e-02 1.221093e-03 1.808061e-02 4.778369e-02 1.744929e-05 2.497538e-02 3.808741e-02 3.809574e-02 5.304984e-02 7.740680e-02 5.756825e-02 
    31.5                2.385818e-02 2.383087e-02 9.717203e-04 1.700177e-02 4.522340e-02 1.634419e-05 2.359662e-02 3.584694e-02 3.585664e-02 4.994696e-02 7.318422e-02 5.425080e-02 
    32.5                2.224977e-02 2.222415e-02 7.610020e-04 1.581019e-02 4.228686e-02 1.511571e-05 2.200816e-02 3.328543e-02 3.329407e-02 4.647788e-02 6.833225e-02 5.049811e-02 
    33.5                2.043432e-02 2.040643e-02 5.951371e-04 1.452272e-02 3.901792e-02 1.370708e-05 2.021484e-02 3.042625e-02 3.043395e-02 4.271304e-02 6.288447e-02 4.631961e-02 
    34.5                1.837425e-02 1.834894e-02 4.634841e-04 1.306945e-02 3.522886e-02 1.223378e-05 1.817981e-02 2.721973e-02 2.722621e-02 3.844340e-02 5.665222e-02 4.162110e-02 
    35.5                1.630570e-02 1.628082e-02 3.452711e-04 1.160152e-02 3.137690e-02 1.074444e-05 1.613513e-02 2.402484e-02 2.403242e-02 3.412736e-02 5.035405e-02 3.690445e-02 
    36.5                1.423586e-02 1.421322e-02 2.463816e-04 1.012836e-02 2.748079e-02 9.309203e-06 1.408941e-02 2.083652e-02 2.084097e-02 2.979030e-02 4.402699e-02 3.218968e-02 
    37.5                1.225267e-02 1.223191e-02 1.726120e-04 8.730313e-03 2.375259e-02 7.916488e-06 1.212857e-02 1.780574e-02 1.781097e-02 2.567225e-02 3.796247e-02 2.768909e-02 
    38.5                1.031457e-02 1.029523e-02 1.175210e-04 7.370863e-03 2.009815e-02 6.581438e-06 1.021172e-02 1.489002e-02 1.489443e-02 2.166677e-02 3.203271e-02 2.330382e-02 
    39.5                8.437535e-03 8.420237e-03 7.512128e-05 6.074691e-03 1.659872e-02 5.278619e-06 8.355039e-03 1.211433e-02 1.211811e-02 1.785064e-02 2.631634e-02 1.907266e-02 
    40.5                6.607415e-03 6.591337e-03 4.581717e-05 4.804387e-03 1.314992e-02 4.040608e-06 6.544075e-03 9.435622e-03 9.438622e-03 1.411205e-02 2.071895e-02 1.495058e-02 
    41.5                4.927817e-03 4.914229e-03 2.623384e-05 3.627899e-03 9.943306e-03 2.930978e-06 4.881608e-03 7.007223e-03 7.009531e-03 1.065172e-02 1.555210e-02 1.116714e-02 
    42.5                3.500179e-03 3.490058e-03 1.402658e-05 2.602366e-03 7.140392e-03 2.035147e-06 3.468044e-03 4.949546e-03 4.951078e-03 7.637413e-03 1.110461e-02 7.942129e-03 
    43.5                2.367003e-03 2.358920e-03 7.197829e-06 1.787701e-03 4.909091e-03 1.323368e-06 2.345706e-03 3.333980e-03 3.335245e-03 5.244434e-03 7.567002e-03 5.381994e-03 
    44.5                1.453221e-03 1.447719e-03 3.178641e-06 1.132794e-03 3.113101e-03 7.601520e-07 1.440495e-03 2.056370e-03 2.057139e-03 3.322231e-03 4.719317e-03 3.321132e-03 
    45.5                7.803312e-04 7.767066e-04 1.214499e-06 6.313322e-04 1.735998e-03 3.727349e-07 7.737128e-04 1.112416e-03 1.112712e-03 1.851035e-03 2.581537e-03 1.794142e-03 
    46.5                3.424846e-04 3.405065e-04 3.830309e-07 2.941221e-04 8.091612e-04 1.400274e-07 3.397043e-04 4.983652e-04 4.986914e-04 8.622424e-04 1.168047e-03 7.957487e-04 
    47.5                1.080233e-04 1.072891e-04 8.278480e-08 1.009579e-04 2.778519e-04 3.626232e-08 1.071907e-04 1.633213e-04 1.633824e-04 2.959391e-04 3.860640e-04 2.553849e-04 
    48.5                2.356553e-05 2.339047e-05 1.127093e-08 2.428214e-05 6.685102e-05 5.503615e-09 2.339626e-05 3.734859e-05 3.737611e-05 7.117545e-05 8.901591e-05 5.690807e-05 
    49.5                2.784288e-06 2.763376e-06 3.997078e-10 3.363705e-06 9.264164e-06 1.885179e-10 2.766905e-06 4.834687e-06 4.846346e-06 9.860076e-06 1.156411e-05 6.987366e-06 
    50.5                5.339659e-08 5.372178e-08 0.000000e+00 9.636702e-08 2.654142e-07 0.000000e+00 5.325510e-08 1.237305e-07 1.238920e-07 2.824378e-07 2.945934e-07 1.531301e-07 
    51.5                0.000000e+00 0.000000e+00 0.000000e+00 0.000000e+00 0.000000e+00 0.000000e+00 0.000000e+00 0.000000e+00 0.000000e+00 0.000000e+00 0.000000e+00 0.000000e+00 
    52.5                0.000000e+00 0.000000e+00 0.000000e+00 0.000000e+00 0.000000e+00 0.000000e+00 0.000000e+00 0.000000e+00 0.000000e+00 0.000000e+00 0.000000e+00 0.000000e+00 
    53.5                0.000000e+00 0.000000e+00 0.000000e+00 0.000000e+00 0.000000e+00 0.000000e+00 0.000000e+00 0.000000e+00 0.000000e+00 0.000000e+00 0.000000e+00 0.000000e+00 
    54.5                0.000000e+00 0.000000e+00 0.000000e+00 0.000000e+00 0.000000e+00 0.000000e+00 0.000000e+00 0.000000e+00 0.000000e+00 0.000000e+00 0.000000e+00 0.000000e+00 
    55.5                0.000000e+00 0.000000e+00 0.000000e+00 0.000000e+00 0.000000e+00 0.000000e+00 0.000000e+00 0.000000e+00 0.000000e+00 0.000000e+00 0.000000e+00 0.000000e+00 
    56.5                0.000000e+00 0.000000e+00 0.000000e+00 0.000000e+00 0.000000e+00 0.000000e+00 0.000000e+00 0.000000e+00 0.000000e+00 0.000000e+00 0.000000e+00 0.000000e+00 
    57.5                0.000000e+00 0.000000e+00 0.000000e+00 0.000000e+00 0.000000e+00 0.000000e+00 0.000000e+00 0.000000e+00 0.000000e+00 0.000000e+00 0.000000e+00 0.000000e+00 
    58.5                0.000000e+00 0.000000e+00 0.000000e+00 0.000000e+00 0.000000e+00 0.000000e+00 0.000000e+00 0.000000e+00 0.000000e+00 0.000000e+00 0.000000e+00 0.000000e+00 
    59.5                0.000000e+00 0.000000e+00 0.000000e+00 0.000000e+00 0.000000e+00 0.000000e+00 0.000000e+00 0.000000e+00 0.000000e+00 0.000000e+00 0.000000e+00 0.000000e+00 
    60.5                0.000000e+00 0.000000e+00 0.000000e+00 0.000000e+00 0.000000e+00 0.000000e+00 0.000000e+00 0.000000e+00 0.000000e+00 0.000000e+00 0.000000e+00 0.000000e+00 
    61.5                0.000000e+00 0.000000e+00 0.000000e+00 0.000000e+00 0.000000e+00 0.000000e+00 0.000000e+00 0.000000e+00 0.000000e+00 0.000000e+00 0.000000e+00 0.000000e+00 
    62.5                0.000000e+00 0.000000e+00 0.000000e+00 0.000000e+00 0.000000e+00 0.000000e+00 0.000000e+00 0.000000e+00 0.000000e+00 0.000000e+00 0.000000e+00 0.000000e+00 
    63.5                0.000000e+00 0.000000e+00 0.000000e+00 0.000000e+00 0.000000e+00 0.000000e+00 0.000000e+00 0.000000e+00 0.000000e+00 0.000000e+00 0.000000e+00 0.000000e+00 
    64.5                0.000000e+00 0.000000e+00 0.000000e+00 0.000000e+00 0.000000e+00 0.000000e+00 0.000000e+00 0.000000e+00 0.000000e+00 0.000000e+00 0.000000e+00 0.000000e+00 
    65.5                0.000000e+00 0.000000e+00 0.000000e+00 0.000000e+00 0.000000e+00 0.000000e+00 0.000000e+00 0.000000e+00 0.000000e+00 0.000000e+00 0.000000e+00 0.000000e+00 
    66.5                0.000000e+00 0.000000e+00 0.000000e+00 0.000000e+00 0.000000e+00 0.000000e+00 0.000000e+00 0.000000e+00 0.000000e+00 0.000000e+00 0.000000e+00 0.000000e+00 
    67.5                0.000000e+00 0.000000e+00 0.000000e+00 0.000000e+00 0.000000e+00 0.000000e+00 0.000000e+00 0.000000e+00 0.000000e+00 0.000000e+00 0.000000e+00 0.000000e+00 
    68.5                0.000000e+00 0.000000e+00 0.000000e+00 0.000000e+00 0.000000e+00 0.000000e+00 0.000000e+00 0.000000e+00 0.000000e+00 0.000000e+00 0.000000e+00 0.000000e+00 
    69.5                0.000000e+00 0.000000e+00 0.000000e+00 0.000000e+00 0.000000e+00 0.000000e+00 0.000000e+00 0.000000e+00 0.000000e+00 0.000000e+00 0.000000e+00 0.000000e+00 
    70.5                0.000000e+00 0.000000e+00 0.000000e+00 0.000000e+00 0.000000e+00 0.000000e+00 0.000000e+00 0.000000e+00 0.000000e+00 0.000000e+00 0.000000e+00 0.000000e+00 
    71.5                0.000000e+00 0.000000e+00 0.000000e+00 0.000000e+00 0.000000e+00 0.000000e+00 0.000000e+00 0.000000e+00 0.000000e+00 0.000000e+00 0.000000e+00 0.000000e+00 
    72.5                0.000000e+00 0.000000e+00 0.000000e+00 0.000000e+00 0.000000e+00 0.000000e+00 0.000000e+00 0.000000e+00 0.000000e+00 0.000000e+00 0.000000e+00 0.000000e+00 
    73.5                0.000000e+00 0.000000e+00 0.000000e+00 0.000000e+00 0.000000e+00 0.000000e+00 0.000000e+00 0.000000e+00 0.000000e+00 0.000000e+00 0.000000e+00 0.000000e+00 
    74.5                0.000000e+00 0.000000e+00 0.000000e+00 0.000000e+00 0.000000e+00 0.000000e+00 0.000000e+00 0.000000e+00 0.000000e+00 0.000000e+00 0.000000e+00 0.000000e+00 
    75.5                0.000000e+00 0.000000e+00 0.000000e+00 0.000000e+00 0.000000e+00 0.000000e+00 0.000000e+00 0.000000e+00 0.000000e+00 0.000000e+00 0.000000e+00 0.000000e+00 
    76.5                0.000000e+00 0.000000e+00 0.000000e+00 0.000000e+00 0.000000e+00 0.000000e+00 0.000000e+00 0.000000e+00 0.000000e+00 0.000000e+00 0.000000e+00 0.000000e+00 
    77.5                0.000000e+00 0.000000e+00 0.000000e+00 0.000000e+00 0.000000e+00 0.000000e+00 0.000000e+00 0.000000e+00 0.000000e+00 0.000000e+00 0.000000e+00 0.000000e+00 
    78.5                0.000000e+00 0.000000e+00 0.000000e+00 0.000000e+00 0.000000e+00 0.000000e+00 0.000000e+00 0.000000e+00 0.000000e+00 0.000000e+00 0.000000e+00 0.000000e+00 
    79.5                0.000000e+00 0.000000e+00 0.000000e+00 0.000000e+00 0.000000e+00 0.000000e+00 0.000000e+00 0.000000e+00 0.000000e+00 0.000000e+00 0.000000e+00 0.000000e+00 


