# 80 rows of flux data
# 12 columns of flux data
# 
# total cross-sectional flux  9.986364e-01 /m^2/yr
#
#                             +x ram      -x wake      +y port -y starboard    +z zenith     -z nadir        Earth          Sun     anti-Sun      rot (x)      rot (y)      rot (z) 
# average speed (km/s)         37.71        37.73        28.02        37.80        36.35        32.19        37.74        28.20        28.20        33.87        37.05        34.32 
# total flux (#/m2/yr)  2.289054e-01 2.288506e-01 3.550780e-01 2.339565e-01 4.488753e-01 4.162985e-04 2.284414e-01 1.567752e-01 1.567177e-01 8.241471e-01 7.152599e-01 8.146410e-01 
# velocity (km/s)
     0.5                0.000000e+00 0.000000e+00 0.000000e+00 0.000000e+00 0.000000e+00 0.000000e+00 0.000000e+00 0.000000e+00 0.000000e+00 0.000000e+00 0.000000e+00 0.000000e+00 
     1.5                0.000000e+00 0.000000e+00 0.000000e+00 0.000000e+00 0.000000e+00 0.000000e+00 0.000000e+00 0.000000e+00 0.000000e+00 0.000000e+00 0.000000e+00 0.000000e+00 
     2.5                8.935066e-05 9.033490e-05 5.479600e-05 9.505997e-05 2.010383e-04 3.575600e-08 8.975097e-05 9.321567e-05 9.319211e-05 2.738304e-04 2.978743e-04 2.588966e-04 
     3.5                4.596822e-04 4.598211e-04 3.297088e-04 4.660796e-04 8.772215e-04 3.978070e-07 4.572516e-04 4.724245e-04 4.721332e-04 1.312790e-03 1.415839e-03 1.337314e-03 
     4.5                8.892695e-04 8.882289e-04 7.675858e-04 8.758312e-04 1.633560e-03 1.051900e-06 8.833032e-04 9.492143e-04 9.488496e-04 2.579147e-03 2.694563e-03 2.669189e-03 
     5.5                1.351351e-03 1.349905e-03 1.348854e-03 1.332209e-03 2.478403e-03 1.851594e-06 1.342364e-03 1.494226e-03 1.493698e-03 4.069454e-03 4.092402e-03 4.195834e-03 
     6.5                1.793220e-03 1.790726e-03 2.153712e-03 1.744345e-03 3.319006e-03 2.764374e-06 1.781473e-03 2.015708e-03 2.015070e-03 5.701064e-03 5.456735e-03 5.842188e-03 
     7.5                2.209957e-03 2.206269e-03 3.105778e-03 2.146498e-03 4.170405e-03 3.744019e-06 2.195222e-03 2.524261e-03 2.523504e-03 7.449160e-03 6.784311e-03 7.558129e-03 
     8.5                2.596570e-03 2.592780e-03 4.046288e-03 2.490365e-03 4.968228e-03 4.631306e-06 2.580285e-03 3.014781e-03 3.014110e-03 9.103728e-03 8.023008e-03 9.184118e-03 
     9.5                2.900865e-03 2.896560e-03 5.035695e-03 2.757861e-03 5.641373e-03 5.559684e-06 2.882809e-03 3.431586e-03 3.430674e-03 1.063270e-02 9.034319e-03 1.065782e-02 
    10.5                3.218277e-03 3.214091e-03 6.015849e-03 3.054176e-03 6.389284e-03 6.379118e-06 3.198474e-03 3.892298e-03 3.891189e-03 1.223298e-02 1.012139e-02 1.216896e-02 
    11.5                3.491419e-03 3.486187e-03 7.276465e-03 3.290397e-03 7.081749e-03 7.289227e-06 3.470582e-03 4.298448e-03 4.297291e-03 1.397004e-02 1.110091e-02 1.382135e-02 
    12.5                3.702691e-03 3.697097e-03 8.196065e-03 3.437565e-03 7.581941e-03 8.284916e-06 3.681529e-03 4.540628e-03 4.539490e-03 1.521151e-02 1.182429e-02 1.499066e-02 
    13.5                3.778407e-03 3.772375e-03 9.121040e-03 3.434607e-03 7.893064e-03 8.793249e-06 3.758761e-03 4.662791e-03 4.661379e-03 1.619869e-02 1.219252e-02 1.590688e-02 
    14.5                3.837118e-03 3.831770e-03 9.725217e-03 3.539088e-03 8.261388e-03 8.907415e-06 3.818686e-03 4.756961e-03 4.755400e-03 1.701914e-02 1.257801e-02 1.659633e-02 
    15.5                3.958598e-03 3.952957e-03 1.073470e-02 3.557029e-03 8.606598e-03 9.585981e-06 3.940646e-03 4.895706e-03 4.894290e-03 1.812566e-02 1.303168e-02 1.763095e-02 
    16.5                3.982325e-03 3.977021e-03 1.103140e-02 3.625070e-03 8.749930e-03 9.727460e-06 3.965204e-03 4.943188e-03 4.941861e-03 1.853132e-02 1.318472e-02 1.797535e-02 
    17.5                4.000875e-03 3.996555e-03 1.143262e-02 3.661811e-03 8.868428e-03 1.001364e-05 3.986193e-03 4.891978e-03 4.890598e-03 1.897334e-02 1.330714e-02 1.836590e-02 
    18.5                4.038327e-03 4.033024e-03 1.185158e-02 3.671184e-03 9.076829e-03 1.026431e-05 4.022675e-03 4.900709e-03 4.899127e-03 1.945701e-02 1.352742e-02 1.875529e-02 
    19.5                4.047028e-03 4.042844e-03 1.198891e-02 3.681221e-03 9.029523e-03 1.090434e-05 4.033549e-03 4.777856e-03 4.776587e-03 1.955547e-02 1.349510e-02 1.886283e-02 
    20.5                3.945775e-03 3.942367e-03 1.180934e-02 3.696582e-03 8.867989e-03 1.091011e-05 3.933102e-03 4.623395e-03 4.622089e-03 1.931261e-02 1.320984e-02 1.855263e-02 
    21.5                3.972642e-03 3.968717e-03 1.191536e-02 3.814574e-03 8.979682e-03 1.077834e-05 3.960463e-03 4.560390e-03 4.559109e-03 1.957164e-02 1.334280e-02 1.876841e-02 
    22.5                3.949748e-03 3.945843e-03 1.210919e-02 3.730784e-03 8.888062e-03 1.104367e-05 3.939425e-03 4.385522e-03 4.383878e-03 1.959060e-02 1.323064e-02 1.879468e-02 
    23.5                3.751891e-03 3.748415e-03 1.137693e-02 3.647234e-03 8.431972e-03 1.048406e-05 3.741636e-03 4.121227e-03 4.120314e-03 1.860413e-02 1.255521e-02 1.781627e-02 
    24.5                3.629989e-03 3.626814e-03 1.088722e-02 3.605030e-03 8.145962e-03 1.004653e-05 3.620184e-03 3.887418e-03 3.886118e-03 1.795134e-02 1.213531e-02 1.716229e-02 
    25.5                3.540499e-03 3.538188e-03 1.058968e-02 3.509838e-03 7.897342e-03 1.006914e-05 3.531725e-03 3.697506e-03 3.696491e-03 1.746081e-02 1.179603e-02 1.668796e-02 
    26.5                3.478814e-03 3.476143e-03 1.014360e-02 3.565000e-03 7.711640e-03 9.979738e-06 3.470183e-03 3.524670e-03 3.523373e-03 1.700723e-02 1.154895e-02 1.623234e-02 
    27.5                3.377627e-03 3.374547e-03 9.602028e-03 3.476657e-03 7.324057e-03 9.859451e-06 3.368366e-03 3.307045e-03 3.305982e-03 1.622251e-02 1.107990e-02 1.551051e-02 
    28.5                3.261049e-03 3.259964e-03 9.086421e-03 3.485363e-03 7.078626e-03 9.345846e-06 3.254738e-03 3.042123e-03 3.041098e-03 1.562066e-02 1.070563e-02 1.489558e-02 
    29.5                3.068038e-03 3.065325e-03 8.505793e-03 3.228692e-03 6.575001e-03 8.821826e-06 3.060822e-03 2.758372e-03 2.757562e-03 1.455697e-02 1.000535e-02 1.390902e-02 
    30.5                2.928779e-03 2.927196e-03 8.161773e-03 3.215672e-03 6.360508e-03 8.344081e-06 2.923453e-03 2.602658e-03 2.601456e-03 1.410759e-02 9.615287e-03 1.342113e-02 
    31.5                2.911606e-03 2.909906e-03 7.819618e-03 3.288381e-03 6.236196e-03 8.360914e-06 2.906553e-03 2.432690e-03 2.431964e-03 1.380515e-02 9.485092e-03 1.312233e-02 
    32.5                2.809443e-03 2.808024e-03 7.114493e-03 3.235609e-03 5.884706e-03 7.853720e-06 2.804842e-03 2.236045e-03 2.235305e-03 1.293180e-02 9.058214e-03 1.232621e-02 
    33.5                2.811460e-03 2.811436e-03 6.713940e-03 3.361914e-03 5.887927e-03 7.706937e-06 2.808645e-03 2.089367e-03 2.088620e-03 1.269495e-02 9.065611e-03 1.206723e-02 
    34.5                2.854963e-03 2.852317e-03 6.731392e-03 3.400233e-03 5.878596e-03 7.935094e-06 2.849810e-03 2.025242e-03 2.024280e-03 1.274875e-02 9.121154e-03 1.213741e-02 
    35.5                2.748217e-03 2.750642e-03 5.945828e-03 3.344764e-03 5.543141e-03 7.191247e-06 2.747102e-03 1.878705e-03 1.878011e-03 1.181790e-02 8.700416e-03 1.128120e-02 
    36.5                2.753893e-03 2.753285e-03 5.720149e-03 3.449495e-03 5.592589e-03 6.798639e-06 2.751242e-03 1.763512e-03 1.762740e-03 1.173725e-02 8.751773e-03 1.117723e-02 
    37.5                2.839150e-03 2.839734e-03 5.661905e-03 3.503333e-03 5.718414e-03 6.766506e-06 2.837353e-03 1.719114e-03 1.718262e-03 1.183906e-02 8.980626e-03 1.127379e-02 
    38.5                2.993048e-03 2.993424e-03 5.423125e-03 3.787510e-03 6.001642e-03 6.556866e-06 2.991652e-03 1.675080e-03 1.674451e-03 1.209168e-02 9.444155e-03 1.151618e-02 
    39.5                2.961685e-03 2.964966e-03 5.215529e-03 3.674229e-03 5.770834e-03 6.468368e-06 2.962705e-03 1.607829e-03 1.606868e-03 1.165937e-02 9.229750e-03 1.120253e-02 
    40.5                2.987048e-03 2.989712e-03 5.022995e-03 3.772568e-03 5.889411e-03 6.207783e-06 2.987015e-03 1.540351e-03 1.539711e-03 1.166344e-02 9.357736e-03 1.114510e-02 
    41.5                3.276677e-03 3.278669e-03 4.871841e-03 4.110833e-03 6.379555e-03 6.111552e-06 3.275906e-03 1.577269e-03 1.576657e-03 1.219756e-02 1.019334e-02 1.170457e-02 
    42.5                3.261420e-03 3.261924e-03 4.507382e-03 3.955387e-03 6.157455e-03 5.828020e-06 3.258905e-03 1.523547e-03 1.522537e-03 1.160413e-02 1.001018e-02 1.125989e-02 
    43.5                3.318668e-03 3.320628e-03 4.140449e-03 4.104267e-03 6.407532e-03 5.397781e-06 3.316413e-03 1.506727e-03 1.505793e-03 1.162989e-02 1.028913e-02 1.120473e-02 
    44.5                3.665360e-03 3.666051e-03 4.262144e-03 4.498014e-03 6.998801e-03 5.550543e-06 3.663469e-03 1.583045e-03 1.582102e-03 1.250025e-02 1.130395e-02 1.210061e-02 
    45.5                3.692077e-03 3.695140e-03 4.079050e-03 4.429064e-03 6.932402e-03 5.469066e-06 3.691484e-03 1.519813e-03 1.518968e-03 1.225279e-02 1.130298e-02 1.193683e-02 
    46.5                3.782941e-03 3.780402e-03 3.890765e-03 4.458084e-03 7.069522e-03 5.300886e-06 3.776037e-03 1.517830e-03 1.517226e-03 1.223367e-02 1.154353e-02 1.197294e-02 
    47.5                3.951075e-03 3.955489e-03 3.698875e-03 4.606709e-03 7.483119e-03 5.134618e-06 3.951573e-03 1.571717e-03 1.570913e-03 1.254222e-02 1.214191e-02 1.223740e-02 
    48.5                4.369362e-03 4.369918e-03 3.543244e-03 4.946194e-03 8.123599e-03 5.276350e-06 4.364568e-03 1.611252e-03 1.610251e-03 1.321046e-02 1.329730e-02 1.306528e-02 
    49.5                4.659473e-03 4.665442e-03 3.492462e-03 5.301302e-03 8.865813e-03 5.369331e-06 4.659562e-03 1.689544e-03 1.688725e-03 1.405742e-02 1.434618e-02 1.377263e-02 
    50.5                5.353168e-03 5.364528e-03 3.429302e-03 5.860113e-03 1.008661e-02 5.741596e-06 5.357252e-03 1.790606e-03 1.789705e-03 1.543344e-02 1.639323e-02 1.528045e-02 
    51.5                6.023775e-03 6.031341e-03 3.305881e-03 6.280410e-03 1.105489e-02 6.206193e-06 6.023879e-03 1.860997e-03 1.859960e-03 1.644455e-02 1.822336e-02 1.663486e-02 
    52.5                6.124076e-03 6.122965e-03 3.011677e-03 6.161344e-03 1.101912e-02 6.291766e-06 6.116165e-03 1.884725e-03 1.883375e-03 1.608166e-02 1.836251e-02 1.653403e-02 
    53.5                6.216164e-03 6.218172e-03 2.750869e-03 6.149801e-03 1.113458e-02 6.115961e-06 6.211814e-03 1.886452e-03 1.885644e-03 1.594613e-02 1.859310e-02 1.652692e-02 
    54.5                5.951064e-03 5.951800e-03 2.492089e-03 5.751514e-03 1.047747e-02 5.974091e-06 5.944588e-03 1.844080e-03 1.843092e-03 1.490667e-02 1.768878e-02 1.564140e-02 
    55.5                5.921279e-03 5.926144e-03 2.277329e-03 5.743641e-03 1.053579e-02 5.614561e-06 5.918821e-03 1.822220e-03 1.821241e-03 1.477609e-02 1.766040e-02 1.546515e-02 
    56.5                5.713106e-03 5.714359e-03 2.137785e-03 5.449546e-03 1.004071e-02 5.525693e-06 5.707632e-03 1.761341e-03 1.760577e-03 1.403980e-02 1.695272e-02 1.481032e-02 
    57.5                5.241548e-03 5.242985e-03 1.819464e-03 4.891519e-03 9.154928e-03 5.094041e-06 5.236783e-03 1.633589e-03 1.632745e-03 1.264890e-02 1.552214e-02 1.344115e-02 
    58.5                5.009999e-03 5.009927e-03 1.582169e-03 4.653390e-03 8.757400e-03 4.650924e-06 5.003791e-03 1.503054e-03 1.502229e-03 1.195709e-02 1.482325e-02 1.274066e-02 
    59.5                4.776334e-03 4.777060e-03 1.412303e-03 4.395443e-03 8.342230e-03 4.369366e-06 4.771651e-03 1.369908e-03 1.369391e-03 1.128062e-02 1.412636e-02 1.206145e-02 
    60.5                4.356612e-03 4.362182e-03 1.189362e-03 3.946438e-03 7.574953e-03 4.044646e-06 4.357193e-03 1.199428e-03 1.198762e-03 1.013194e-02 1.287515e-02 1.091546e-02 
    61.5                3.937542e-03 3.939913e-03 9.789588e-04 3.402530e-03 6.600321e-03 3.685516e-06 3.935523e-03 1.042130e-03 1.041649e-03 8.752495e-03 1.144509e-02 9.698981e-03 
    62.5                3.216051e-03 3.210585e-03 7.310837e-04 2.765522e-03 5.392375e-03 3.024925e-06 3.207485e-03 8.657743e-04 8.652671e-04 7.085672e-03 9.348632e-03 7.878262e-03 
    63.5                2.632716e-03 2.632798e-03 5.651129e-04 2.237138e-03 4.397195e-03 2.451923e-06 2.630040e-03 6.991803e-04 6.988342e-04 5.737310e-03 7.641445e-03 6.415719e-03 
    64.5                2.104857e-03 2.104252e-03 4.186866e-04 1.775332e-03 3.513189e-03 1.982671e-06 2.101980e-03 5.360924e-04 5.358108e-04 4.547617e-03 6.111755e-03 5.105541e-03 
    65.5                1.656556e-03 1.654163e-03 2.996955e-04 1.345712e-03 2.680468e-03 1.563409e-06 1.652525e-03 3.938051e-04 3.935969e-04 3.443416e-03 4.743265e-03 3.967209e-03 
    66.5                1.202447e-03 1.200601e-03 2.006380e-04 9.501309e-04 1.905235e-03 1.155652e-06 1.199699e-03 2.655815e-04 2.654384e-04 2.429828e-03 3.413651e-03 2.854159e-03 
    67.5                7.867427e-04 7.859745e-04 1.191641e-04 6.034652e-04 1.220104e-03 7.874727e-07 7.854823e-04 1.590396e-04 1.589716e-04 1.539612e-03 2.216990e-03 1.849712e-03 
    68.5                4.727382e-04 4.724400e-04 6.294427e-05 3.379837e-04 6.860097e-04 4.888713e-07 4.721941e-04 8.095006e-05 8.090968e-05 8.583944e-04 1.297078e-03 1.091399e-03 
    69.5                2.258927e-04 2.248981e-04 2.602505e-05 1.484918e-04 3.032246e-04 2.510081e-07 2.249335e-04 3.210618e-05 3.207927e-05 3.753466e-04 6.015385e-04 5.107881e-04 
    70.5                7.243347e-05 7.192279e-05 7.662366e-06 3.822888e-05 7.794544e-05 1.022344e-07 7.191482e-05 8.067040e-06 8.055775e-06 9.683637e-05 1.799472e-04 1.580271e-04 
    71.5                1.184337e-05 1.172434e-05 9.477438e-07 5.010182e-06 1.030435e-05 2.073578e-08 1.171956e-05 1.069324e-06 1.066751e-06 1.260475e-05 2.782936e-05 2.507483e-05 
    72.5                6.977319e-07 6.839804e-07 3.013300e-08 1.120041e-07 2.261124e-07 2.127083e-09 6.824316e-07 3.344703e-08 3.315929e-08 2.874847e-07 1.415991e-06 1.392668e-06 
    73.5                0.000000e+00 0.000000e+00 0.000000e+00 0.000000e+00 0.000000e+00 0.000000e+00 0.000000e+00 0.000000e+00 0.000000e+00 0.000000e+00 0.000000e+00 0.000000e+00 
    74.5                0.000000e+00 0.000000e+00 0.000000e+00 0.000000e+00 0.000000e+00 0.000000e+00 0.000000e+00 0.000000e+00 0.000000e+00 0.000000e+00 0.000000e+00 0.000000e+00 
    75.5                0.000000e+00 0.000000e+00 0.000000e+00 0.000000e+00 0.000000e+00 0.000000e+00 0.000000e+00 0.000000e+00 0.000000e+00 0.000000e+00 0.000000e+00 0.000000e+00 
    76.5                0.000000e+00 0.000000e+00 0.000000e+00 0.000000e+00 0.000000e+00 0.000000e+00 0.000000e+00 0.000000e+00 0.000000e+00 0.000000e+00 0.000000e+00 0.000000e+00 
    77.5                0.000000e+00 0.000000e+00 0.000000e+00 0.000000e+00 0.000000e+00 0.000000e+00 0.000000e+00 0.000000e+00 0.000000e+00 0.000000e+00 0.000000e+00 0.000000e+00 
    78.5                0.000000e+00 0.000000e+00 0.000000e+00 0.000000e+00 0.000000e+00 0.000000e+00 0.000000e+00 0.000000e+00 0.000000e+00 0.000000e+00 0.000000e+00 0.000000e+00 
    79.5                0.000000e+00 0.000000e+00 0.000000e+00 0.000000e+00 0.000000e+00 0.000000e+00 0.000000e+00 0.000000e+00 0.000000e+00 0.000000e+00 0.000000e+00 0.000000e+00 


