# 80 rows of flux data
# 12 columns of flux data
# 
# total cross-sectional flux  1.015982e+00 /m^2/yr
#
#                             +x ram      -x wake      +y port -y starboard    +z zenith     -z nadir        Earth          Sun     anti-Sun      rot (x)      rot (y)      rot (z) 
# average speed (km/s)         37.71        37.72        43.57        28.68        33.64        39.69        37.75        28.15        28.15        33.84        35.63        35.37 
# total flux (#/m2/yr)  2.313296e-01 2.312983e-01 1.738239e-01 3.734930e-01 5.066725e-01 3.241219e-04 2.306264e-01 1.608975e-01 1.608771e-01 8.405694e-01 7.603414e-01 7.891928e-01 
# velocity (km/s)
     0.5                0.000000e+00 0.000000e+00 0.000000e+00 0.000000e+00 0.000000e+00 0.000000e+00 0.000000e+00 0.000000e+00 0.000000e+00 0.000000e+00 0.000000e+00 0.000000e+00 
     1.5                0.000000e+00 0.000000e+00 0.000000e+00 0.000000e+00 0.000000e+00 0.000000e+00 0.000000e+00 0.000000e+00 0.000000e+00 0.000000e+00 0.000000e+00 0.000000e+00 
     2.5                8.996348e-05 9.073806e-05 1.087979e-04 4.359187e-05 1.902348e-04 4.416761e-08 9.017759e-05 9.269326e-05 9.258448e-05 2.695728e-04 2.903762e-04 2.614168e-04 
     3.5                4.577573e-04 4.578652e-04 4.816432e-04 3.154054e-04 8.342174e-04 4.720584e-07 4.553144e-04 4.687027e-04 4.684715e-04 1.296622e-03 1.378535e-03 1.338561e-03 
     4.5                8.938114e-04 8.933220e-04 8.404519e-04 7.920006e-04 1.608122e-03 1.124823e-06 8.881712e-04 9.486524e-04 9.483341e-04 2.574326e-03 2.678825e-03 2.669939e-03 
     5.5                1.361931e-03 1.360935e-03 1.205214e-03 1.433732e-03 2.518495e-03 1.821590e-06 1.352804e-03 1.503777e-03 1.503454e-03 4.101319e-03 4.129375e-03 4.185996e-03 
     6.5                1.818422e-03 1.816407e-03 1.498002e-03 2.309305e-03 3.526484e-03 2.496021e-06 1.805821e-03 2.052902e-03 2.052650e-03 5.818143e-03 5.642429e-03 5.818933e-03 
     7.5                2.243435e-03 2.240433e-03 1.721640e-03 3.273950e-03 4.606848e-03 3.084156e-06 2.227086e-03 2.570728e-03 2.570191e-03 7.590954e-03 7.155913e-03 7.408104e-03 
     8.5                2.645899e-03 2.642922e-03 1.950097e-03 4.290044e-03 5.650547e-03 3.598063e-06 2.627152e-03 3.097650e-03 3.097292e-03 9.379718e-03 8.606747e-03 9.027917e-03 
     9.5                2.962679e-03 2.959349e-03 2.044523e-03 5.263662e-03 6.616677e-03 3.986096e-06 2.941241e-03 3.534536e-03 3.534174e-03 1.095284e-02 9.864952e-03 1.035902e-02 
    10.5                3.280025e-03 3.276722e-03 2.198750e-03 6.236683e-03 7.642044e-03 4.247132e-06 3.256035e-03 4.000590e-03 4.000111e-03 1.261618e-02 1.116308e-02 1.174847e-02 
    11.5                3.563806e-03 3.559691e-03 2.231471e-03 7.422162e-03 8.731260e-03 4.618311e-06 3.537897e-03 4.411948e-03 4.411060e-03 1.437599e-02 1.248283e-02 1.317151e-02 
    12.5                3.789103e-03 3.784733e-03 2.224576e-03 8.374516e-03 9.558183e-03 4.647015e-06 3.761257e-03 4.697259e-03 4.696899e-03 1.571810e-02 1.346622e-02 1.425175e-02 
    13.5                3.877743e-03 3.872873e-03 2.208295e-03 9.292810e-03 1.020767e-02 4.634489e-06 3.850636e-03 4.841308e-03 4.840690e-03 1.687211e-02 1.413721e-02 1.515974e-02 
    14.5                3.914001e-03 3.909409e-03 2.149931e-03 9.643793e-03 1.074990e-02 4.541981e-06 3.886751e-03 4.910007e-03 4.909201e-03 1.747102e-02 1.464734e-02 1.544639e-02 
    15.5                4.039931e-03 4.035751e-03 2.108154e-03 1.062033e-02 1.146217e-02 4.500608e-06 4.012821e-03 5.060497e-03 5.060263e-03 1.870035e-02 1.539528e-02 1.640664e-02 
    16.5                4.051022e-03 4.046902e-03 2.079494e-03 1.083556e-02 1.169647e-02 4.546179e-06 4.024146e-03 5.096333e-03 5.095858e-03 1.902060e-02 1.560748e-02 1.658136e-02 
    17.5                4.072382e-03 4.069201e-03 2.007142e-03 1.119703e-02 1.197194e-02 4.514526e-06 4.046731e-03 5.052739e-03 5.052256e-03 1.943965e-02 1.585924e-02 1.684427e-02 
    18.5                4.104655e-03 4.100370e-03 1.970113e-03 1.156982e-02 1.233489e-02 4.373513e-06 4.078276e-03 5.045694e-03 5.044977e-03 1.996680e-02 1.618838e-02 1.715417e-02 
    19.5                4.106626e-03 4.103671e-03 1.841675e-03 1.168113e-02 1.236413e-02 4.303863e-06 4.081613e-03 4.925396e-03 4.925418e-03 1.997836e-02 1.619058e-02 1.711491e-02 
    20.5                4.002384e-03 3.999745e-03 1.735663e-03 1.156832e-02 1.218236e-02 4.172694e-06 3.977776e-03 4.758946e-03 4.758434e-03 1.968416e-02 1.586599e-02 1.675571e-02 
    21.5                4.008696e-03 4.005492e-03 1.703237e-03 1.167398e-02 1.232971e-02 4.083168e-06 3.984895e-03 4.676672e-03 4.676208e-03 1.987256e-02 1.598991e-02 1.682674e-02 
    22.5                4.008421e-03 4.005933e-03 1.562446e-03 1.195581e-02 1.237357e-02 3.948600e-06 3.986093e-03 4.526014e-03 4.525831e-03 2.000045e-02 1.600104e-02 1.691062e-02 
    23.5                3.803312e-03 3.800884e-03 1.495431e-03 1.134660e-02 1.170881e-02 3.753457e-06 3.782235e-03 4.251594e-03 4.251680e-03 1.900852e-02 1.513982e-02 1.605290e-02 
    24.5                3.662128e-03 3.660330e-03 1.372747e-03 1.081407e-02 1.127880e-02 3.545306e-06 3.642493e-03 4.000470e-03 3.999904e-03 1.818264e-02 1.456071e-02 1.527366e-02 
    25.5                3.584256e-03 3.582872e-03 1.324490e-03 1.065100e-02 1.097810e-02 3.374134e-06 3.564865e-03 3.811085e-03 3.810986e-03 1.780369e-02 1.417861e-02 1.497242e-02 
    26.5                3.493855e-03 3.492133e-03 1.238519e-03 1.016693e-02 1.063550e-02 3.271950e-06 3.475067e-03 3.600023e-03 3.599839e-03 1.713530e-02 1.374522e-02 1.434231e-02 
    27.5                3.399747e-03 3.397640e-03 1.143583e-03 9.840108e-03 1.012179e-02 3.135928e-06 3.381058e-03 3.395921e-03 3.395644e-03 1.646464e-02 1.315163e-02 1.383515e-02 
    28.5                3.268780e-03 3.268932e-03 1.053340e-03 9.373729e-03 9.697851e-03 3.193557e-06 3.253771e-03 3.130379e-03 3.130429e-03 1.575530e-02 1.260732e-02 1.317661e-02 
    29.5                3.107782e-03 3.105424e-03 9.699143e-04 8.980295e-03 9.063970e-03 3.087705e-06 3.092000e-03 2.847824e-03 2.847923e-03 1.492257e-02 1.184854e-02 1.254714e-02 
    30.5                2.934721e-03 2.933717e-03 8.784701e-04 8.483096e-03 8.717511e-03 2.891587e-06 2.921252e-03 2.654098e-03 2.653754e-03 1.419710e-02 1.131685e-02 1.181114e-02 
    31.5                2.898644e-03 2.897718e-03 8.351668e-04 8.189467e-03 8.478706e-03 2.880118e-06 2.885828e-03 2.489017e-03 2.489156e-03 1.379274e-02 1.103688e-02 1.145713e-02 
    32.5                2.806651e-03 2.806422e-03 7.927477e-04 7.758645e-03 7.910433e-03 2.984470e-06 2.795545e-03 2.296663e-03 2.296600e-03 1.305414e-02 1.044089e-02 1.094002e-02 
    33.5                2.792869e-03 2.792746e-03 8.029408e-04 7.375120e-03 7.729046e-03 3.205946e-06 2.782654e-03 2.136201e-03 2.136048e-03 1.270531e-02 1.027230e-02 1.060126e-02 
    34.5                2.839933e-03 2.838590e-03 8.047825e-04 7.484489e-03 7.718215e-03 3.427059e-06 2.829162e-03 2.067400e-03 2.067415e-03 1.282786e-02 1.031706e-02 1.075333e-02 
    35.5                2.736600e-03 2.738681e-03 8.285993e-04 6.866185e-03 7.107062e-03 3.552569e-06 2.729634e-03 1.930777e-03 1.930832e-03 1.195803e-02 9.682125e-03 1.013373e-02 
    36.5                2.729796e-03 2.729806e-03 8.471483e-04 6.556827e-03 7.019985e-03 4.047365e-06 2.722035e-03 1.793326e-03 1.793266e-03 1.171422e-02 9.618256e-03 9.879915e-03 
    37.5                2.830730e-03 2.832328e-03 1.097046e-03 6.649468e-03 7.082154e-03 4.732822e-06 2.824739e-03 1.760536e-03 1.760511e-03 1.211841e-02 9.816917e-03 1.033878e-02 
    38.5                2.941161e-03 2.942470e-03 1.374099e-03 6.258580e-03 7.129316e-03 5.830122e-06 2.936409e-03 1.714574e-03 1.714675e-03 1.219058e-02 1.004760e-02 1.044744e-02 
    39.5                2.976391e-03 2.978240e-03 1.318398e-03 6.152459e-03 6.866994e-03 6.043085e-06 2.972161e-03 1.647563e-03 1.647345e-03 1.185812e-02 9.913979e-03 1.033362e-02 
    40.5                2.970626e-03 2.971534e-03 1.474052e-03 5.900466e-03 6.856341e-03 6.037843e-06 2.965182e-03 1.582185e-03 1.582253e-03 1.181752e-02 9.891484e-03 1.026440e-02 
    41.5                3.236826e-03 3.239241e-03 1.939471e-03 5.756708e-03 7.131453e-03 6.690103e-06 3.233808e-03 1.603211e-03 1.603242e-03 1.240239e-02 1.052806e-02 1.096136e-02 
    42.5                3.300958e-03 3.300223e-03 2.025766e-03 5.507415e-03 6.786269e-03 7.032744e-06 3.294955e-03 1.578006e-03 1.577634e-03 1.202736e-02 1.039090e-02 1.091666e-02 
    43.5                3.328019e-03 3.329072e-03 2.436956e-03 4.951714e-03 6.777432e-03 6.762450e-06 3.323827e-03 1.553026e-03 1.552690e-03 1.194149e-02 1.045096e-02 1.087762e-02 
    44.5                3.628417e-03 3.630510e-03 2.813804e-03 4.847862e-03 7.240554e-03 7.286691e-06 3.626495e-03 1.604527e-03 1.604407e-03 1.261055e-02 1.129707e-02 1.157422e-02 
    45.5                3.710666e-03 3.713414e-03 2.880687e-03 4.827673e-03 7.113906e-03 7.769213e-06 3.708258e-03 1.565781e-03 1.565654e-03 1.254440e-02 1.133965e-02 1.172686e-02 
    46.5                3.800235e-03 3.798250e-03 3.059230e-03 4.581765e-03 7.128667e-03 7.871478e-06 3.792970e-03 1.556217e-03 1.556141e-03 1.246304e-02 1.149629e-02 1.180576e-02 
    47.5                3.995831e-03 4.001149e-03 3.584647e-03 4.464453e-03 7.355218e-03 8.038963e-06 3.996871e-03 1.610206e-03 1.609721e-03 1.297377e-02 1.200474e-02 1.246474e-02 
    48.5                4.366289e-03 4.365750e-03 4.165757e-03 4.152469e-03 7.751634e-03 8.403016e-06 4.360903e-03 1.650802e-03 1.650536e-03 1.352209e-02 1.291390e-02 1.328674e-02 
    49.5                4.683447e-03 4.689279e-03 4.833467e-03 4.013400e-03 8.279159e-03 8.776888e-06 4.684679e-03 1.727299e-03 1.726773e-03 1.436565e-02 1.385798e-02 1.420483e-02 
    50.5                5.375776e-03 5.385174e-03 5.900864e-03 3.931479e-03 9.192237e-03 9.163594e-06 5.379919e-03 1.831298e-03 1.830914e-03 1.582736e-02 1.567075e-02 1.607518e-02 
    51.5                6.071311e-03 6.080091e-03 6.779987e-03 3.729490e-03 9.875675e-03 9.862623e-06 6.074989e-03 1.900905e-03 1.900366e-03 1.682778e-02 1.735134e-02 1.771385e-02 
    52.5                6.225973e-03 6.223762e-03 6.968128e-03 3.444863e-03 9.728214e-03 9.920830e-06 6.219406e-03 1.924775e-03 1.924147e-03 1.652885e-02 1.751429e-02 1.788585e-02 
    53.5                6.290798e-03 6.290613e-03 7.230320e-03 3.044987e-03 9.698391e-03 9.569689e-06 6.286846e-03 1.922685e-03 1.921974e-03 1.630455e-02 1.760325e-02 1.790652e-02 
    54.5                6.053582e-03 6.055133e-03 6.896115e-03 2.773004e-03 9.084730e-03 9.328985e-06 6.050230e-03 1.880268e-03 1.879579e-03 1.528648e-02 1.679000e-02 1.708560e-02 
    55.5                5.989293e-03 5.991972e-03 7.073721e-03 2.431264e-03 9.027278e-03 8.754461e-06 5.987386e-03 1.854156e-03 1.853379e-03 1.506231e-02 1.663134e-02 1.686296e-02 
    56.5                5.787363e-03 5.787764e-03 6.772397e-03 2.264888e-03 8.592653e-03 8.456863e-06 5.783702e-03 1.790980e-03 1.790375e-03 1.430009e-02 1.598001e-02 1.618260e-02 
    57.5                5.355512e-03 5.357826e-03 6.274094e-03 1.997801e-03 7.799990e-03 7.562009e-06 5.353989e-03 1.663869e-03 1.663278e-03 1.296284e-02 1.468977e-02 1.489791e-02 
    58.5                5.082177e-03 5.080797e-03 6.084296e-03 1.661134e-03 7.388420e-03 6.869335e-06 5.077288e-03 1.527447e-03 1.526843e-03 1.217061e-02 1.392016e-02 1.406797e-02 
    59.5                4.842801e-03 4.842757e-03 5.843372e-03 1.465669e-03 7.004494e-03 6.319518e-06 4.839754e-03 1.391104e-03 1.390739e-03 1.145336e-02 1.323778e-02 1.335208e-02 
    60.5                4.442799e-03 4.449614e-03 5.362619e-03 1.266734e-03 6.331886e-03 5.729671e-06 4.446854e-03 1.220256e-03 1.219807e-03 1.031366e-02 1.209534e-02 1.220012e-02 
    61.5                4.010628e-03 4.012314e-03 4.703830e-03 1.049152e-03 5.501047e-03 5.030609e-06 4.009777e-03 1.059220e-03 1.058743e-03 8.903016e-03 1.075208e-02 1.083734e-02 
    62.5                3.287897e-03 3.282721e-03 3.878833e-03 7.910886e-04 4.467127e-03 4.223635e-06 3.281152e-03 8.806817e-04 8.802850e-04 7.209552e-03 8.792131e-03 8.854795e-03 
    63.5                2.689887e-03 2.690405e-03 3.178191e-03 6.126696e-04 3.633131e-03 3.354957e-06 2.688903e-03 7.110261e-04 7.107669e-04 5.831279e-03 7.177633e-03 7.224564e-03 
    64.5                2.151024e-03 2.151238e-03 2.553932e-03 4.599271e-04 2.892301e-03 2.713775e-06 2.149965e-03 5.458915e-04 5.457015e-04 4.620225e-03 5.734273e-03 5.768554e-03 
    65.5                1.694694e-03 1.693251e-03 1.959682e-03 3.344281e-04 2.200819e-03 2.095505e-06 1.692363e-03 4.012550e-04 4.011012e-04 3.500145e-03 4.460011e-03 4.484806e-03 
    66.5                1.232859e-03 1.230735e-03 1.398700e-03 2.276964e-04 1.560128e-03 1.547648e-06 1.230305e-03 2.709702e-04 2.708174e-04 2.469764e-03 3.215752e-03 3.232280e-03 
    67.5                8.116955e-04 8.109938e-04 9.011057e-04 1.417232e-04 9.961959e-04 1.064201e-06 8.107761e-04 1.629590e-04 1.628922e-04 1.568897e-03 2.098576e-03 2.109548e-03 
    68.5                4.873810e-04 4.877543e-04 5.089196e-04 7.556089e-05 5.584367e-04 6.598014e-07 4.876558e-04 8.318035e-05 8.313574e-05 8.742758e-04 1.233062e-03 1.238570e-03 
    69.5                2.348435e-04 2.341331e-04 2.262935e-04 3.293968e-05 2.462937e-04 3.406395e-07 2.342043e-04 3.320080e-05 3.317744e-05 3.836812e-04 5.784360e-04 5.809229e-04 
    70.5                7.646778e-05 7.608171e-05 5.800554e-05 1.039656e-05 6.368642e-05 1.367296e-07 7.606983e-05 8.465419e-06 8.457837e-06 9.994837e-05 1.781391e-04 1.789367e-04 
    71.5                1.270525e-05 1.261622e-05 7.738433e-06 1.434892e-06 8.388273e-06 2.831809e-08 1.260723e-05 1.139203e-06 1.137027e-06 1.313029e-05 2.832165e-05 2.843130e-05 
    72.5                7.563770e-07 7.423527e-07 1.704660e-07 5.092971e-08 1.857174e-07 2.839322e-09 7.403924e-07 3.698762e-08 3.679803e-08 3.096554e-07 1.521067e-06 1.524252e-06 
    73.5                0.000000e+00 0.000000e+00 0.000000e+00 0.000000e+00 0.000000e+00 0.000000e+00 0.000000e+00 0.000000e+00 0.000000e+00 0.000000e+00 0.000000e+00 0.000000e+00 
    74.5                0.000000e+00 0.000000e+00 0.000000e+00 0.000000e+00 0.000000e+00 0.000000e+00 0.000000e+00 0.000000e+00 0.000000e+00 0.000000e+00 0.000000e+00 0.000000e+00 
    75.5                0.000000e+00 0.000000e+00 0.000000e+00 0.000000e+00 0.000000e+00 0.000000e+00 0.000000e+00 0.000000e+00 0.000000e+00 0.000000e+00 0.000000e+00 0.000000e+00 
    76.5                0.000000e+00 0.000000e+00 0.000000e+00 0.000000e+00 0.000000e+00 0.000000e+00 0.000000e+00 0.000000e+00 0.000000e+00 0.000000e+00 0.000000e+00 0.000000e+00 
    77.5                0.000000e+00 0.000000e+00 0.000000e+00 0.000000e+00 0.000000e+00 0.000000e+00 0.000000e+00 0.000000e+00 0.000000e+00 0.000000e+00 0.000000e+00 0.000000e+00 
    78.5                0.000000e+00 0.000000e+00 0.000000e+00 0.000000e+00 0.000000e+00 0.000000e+00 0.000000e+00 0.000000e+00 0.000000e+00 0.000000e+00 0.000000e+00 0.000000e+00 
    79.5                0.000000e+00 0.000000e+00 0.000000e+00 0.000000e+00 0.000000e+00 0.000000e+00 0.000000e+00 0.000000e+00 0.000000e+00 0.000000e+00 0.000000e+00 0.000000e+00 


