# 80 rows of flux data
# 12 columns of flux data
# 
# total cross-sectional flux  1.026554e+00 /m^2/yr
#
#                             +x ram      -x wake      +y port -y starboard    +z zenith     -z nadir        Earth          Sun     anti-Sun      rot (x)      rot (y)      rot (z) 
# average speed (km/s)         37.74        37.74        43.39        32.68        31.91        46.08        37.79        28.14        28.14        33.98        34.45        36.84 
# total flux (#/m2/yr)  2.326082e-01 2.326101e-01 1.560373e-01 3.451768e-01 5.757206e-01 2.493916e-04 2.318055e-01 1.640227e-01 1.640257e-01 8.511088e-01 8.123232e-01 7.577945e-01 
# velocity (km/s)
     0.5                0.000000e+00 0.000000e+00 0.000000e+00 0.000000e+00 0.000000e+00 0.000000e+00 0.000000e+00 0.000000e+00 0.000000e+00 0.000000e+00 0.000000e+00 0.000000e+00 
     1.5                0.000000e+00 0.000000e+00 0.000000e+00 0.000000e+00 0.000000e+00 0.000000e+00 0.000000e+00 0.000000e+00 0.000000e+00 0.000000e+00 0.000000e+00 0.000000e+00 
     2.5                9.033484e-05 9.085159e-05 1.165468e-04 3.777311e-05 1.757454e-04 5.307336e-08 9.030960e-05 9.059164e-05 9.044781e-05 2.613909e-04 2.793817e-04 2.638047e-04 
     3.5                4.533187e-04 4.534999e-04 4.747930e-04 3.327801e-04 7.913803e-04 4.936755e-07 4.510303e-04 4.582316e-04 4.580908e-04 1.272940e-03 1.333660e-03 1.343814e-03 
     4.5                9.062169e-04 9.059531e-04 8.228528e-04 8.692029e-04 1.606755e-03 1.089750e-06 9.008221e-04 9.609231e-04 9.607982e-04 2.626259e-03 2.687315e-03 2.745213e-03 
     5.5                1.385480e-03 1.385030e-03 1.167436e-03 1.505559e-03 2.610397e-03 1.684061e-06 1.376623e-03 1.533866e-03 1.533626e-03 4.199190e-03 4.223675e-03 4.264600e-03 
     6.5                1.857821e-03 1.856831e-03 1.440515e-03 2.320020e-03 3.809323e-03 2.273597e-06 1.845412e-03 2.117261e-03 2.117248e-03 5.996741e-03 5.910212e-03 5.861053e-03 
     7.5                2.297098e-03 2.295151e-03 1.657122e-03 3.130430e-03 5.123096e-03 2.610700e-06 2.280358e-03 2.664559e-03 2.664273e-03 7.840300e-03 7.630963e-03 7.349993e-03 
     8.5                2.704540e-03 2.702810e-03 1.875216e-03 3.960233e-03 6.414068e-03 2.947799e-06 2.685067e-03 3.201163e-03 3.201086e-03 9.655974e-03 9.292599e-03 8.816088e-03 
     9.5                3.027273e-03 3.025334e-03 1.953470e-03 4.692532e-03 7.654506e-03 3.125750e-06 3.004624e-03 3.650007e-03 3.649961e-03 1.126074e-02 1.078148e-02 9.954147e-03 
    10.5                3.341624e-03 3.339711e-03 2.104298e-03 5.403849e-03 8.926563e-03 3.241743e-06 3.316031e-03 4.109478e-03 4.109458e-03 1.292281e-02 1.228348e-02 1.112239e-02 
    11.5                3.635951e-03 3.633396e-03 2.123076e-03 6.253931e-03 1.036930e-02 3.307223e-06 3.607557e-03 4.541731e-03 4.541353e-03 1.471658e-02 1.391883e-02 1.227233e-02 
    12.5                3.866410e-03 3.864004e-03 2.150048e-03 6.898541e-03 1.147567e-02 3.286323e-06 3.835780e-03 4.856261e-03 4.856262e-03 1.610406e-02 1.514564e-02 1.315323e-02 
    13.5                3.945331e-03 3.942321e-03 2.121640e-03 7.511005e-03 1.240723e-02 3.220739e-06 3.914803e-03 4.990221e-03 4.990286e-03 1.722190e-02 1.606058e-02 1.375563e-02 
    14.5                3.979291e-03 3.976207e-03 2.081658e-03 7.603906e-03 1.304751e-02 3.096184e-06 3.947915e-03 5.056699e-03 5.056466e-03 1.779996e-02 1.666123e-02 1.384573e-02 
    15.5                4.096274e-03 4.094076e-03 2.040168e-03 8.219859e-03 1.405652e-02 3.051085e-06 4.064910e-03 5.187299e-03 5.187491e-03 1.898356e-02 1.766272e-02 1.448273e-02 
    16.5                4.097595e-03 4.095224e-03 2.006601e-03 8.315491e-03 1.436147e-02 2.884951e-06 4.066141e-03 5.208200e-03 5.208305e-03 1.927255e-02 1.791989e-02 1.454081e-02 
    17.5                4.127886e-03 4.126387e-03 1.932342e-03 8.531440e-03 1.476804e-02 2.800385e-06 4.097166e-03 5.180151e-03 5.180254e-03 1.970164e-02 1.829915e-02 1.470147e-02 
    18.5                4.142972e-03 4.140214e-03 1.877820e-03 8.688503e-03 1.524670e-02 2.652205e-06 4.111188e-03 5.145845e-03 5.145622e-03 2.015154e-02 1.870063e-02 1.479422e-02 
    19.5                4.144477e-03 4.143445e-03 1.762911e-03 8.726921e-03 1.534711e-02 2.515862e-06 4.114139e-03 5.036220e-03 5.036667e-03 2.019103e-02 1.875164e-02 1.473321e-02 
    20.5                4.048936e-03 4.047585e-03 1.686198e-03 8.644910e-03 1.516363e-02 2.383627e-06 4.018709e-03 4.867892e-03 4.867830e-03 1.994041e-02 1.843252e-02 1.445314e-02 
    21.5                4.032019e-03 4.030103e-03 1.644155e-03 8.582720e-03 1.533627e-02 2.244305e-06 4.002416e-03 4.749749e-03 4.749708e-03 2.000124e-02 1.853853e-02 1.435269e-02 
    22.5                4.046261e-03 4.045323e-03 1.518763e-03 8.795052e-03 1.551492e-02 2.097870e-06 4.018172e-03 4.622054e-03 4.622298e-03 2.020224e-02 1.867676e-02 1.443017e-02 
    23.5                3.831325e-03 3.830359e-03 1.447197e-03 8.351727e-03 1.469301e-02 1.956710e-06 3.804795e-03 4.330993e-03 4.331360e-03 1.916010e-02 1.766236e-02 1.369478e-02 
    24.5                3.687678e-03 3.686418e-03 1.335353e-03 7.904259e-03 1.413183e-02 1.714173e-06 3.661931e-03 4.072712e-03 4.072583e-03 1.832442e-02 1.695538e-02 1.301994e-02 
    25.5                3.597598e-03 3.597410e-03 1.290539e-03 7.777148e-03 1.379578e-02 1.600379e-06 3.572979e-03 3.868505e-03 3.868666e-03 1.791326e-02 1.652063e-02 1.273854e-02 
    26.5                3.513262e-03 3.512641e-03 1.218777e-03 7.404876e-03 1.332667e-02 1.517415e-06 3.489311e-03 3.653920e-03 3.654198e-03 1.724682e-02 1.597731e-02 1.225114e-02 
    27.5                3.415784e-03 3.414715e-03 1.129019e-03 7.206671e-03 1.275388e-02 1.400742e-06 3.392094e-03 3.445843e-03 3.445791e-03 1.656499e-02 1.530730e-02 1.186747e-02 
    28.5                3.289957e-03 3.290640e-03 1.069474e-03 6.872473e-03 1.222081e-02 1.254339e-06 3.269560e-03 3.198029e-03 3.198397e-03 1.585966e-02 1.466204e-02 1.136208e-02 
    29.5                3.120641e-03 3.119281e-03 9.498501e-04 6.608200e-03 1.151082e-02 1.095271e-06 3.100146e-03 2.894457e-03 2.894762e-03 1.498224e-02 1.380895e-02 1.078766e-02 
    30.5                2.942598e-03 2.942333e-03 8.780793e-04 6.188191e-03 1.103128e-02 9.339161e-07 2.924606e-03 2.682714e-03 2.682607e-03 1.424399e-02 1.316192e-02 1.013154e-02 
    31.5                2.910270e-03 2.909961e-03 8.626811e-04 5.982711e-03 1.071972e-02 8.090546e-07 2.892823e-03 2.530982e-03 2.531275e-03 1.384516e-02 1.280927e-02 9.906041e-03 
    32.5                2.809155e-03 2.809615e-03 8.481786e-04 5.727631e-03 1.004076e-02 7.520876e-07 2.793865e-03 2.327653e-03 2.327857e-03 1.308167e-02 1.208036e-02 9.544312e-03 
    33.5                2.787033e-03 2.787685e-03 8.343515e-04 5.453767e-03 9.754278e-03 7.078057e-07 2.773038e-03 2.152674e-03 2.152836e-03 1.267417e-02 1.178089e-02 9.280188e-03 
    34.5                2.830957e-03 2.830178e-03 8.259498e-04 5.564669e-03 9.792784e-03 5.978740e-07 2.815873e-03 2.070025e-03 2.070211e-03 1.276398e-02 1.183829e-02 9.426060e-03 
    35.5                2.720961e-03 2.723165e-03 8.437149e-04 5.231280e-03 9.007834e-03 5.725986e-07 2.709735e-03 1.937822e-03 1.938069e-03 1.189197e-02 1.102164e-02 9.021752e-03 
    36.5                2.717052e-03 2.717533e-03 8.379048e-04 5.016751e-03 8.837179e-03 5.452152e-07 2.705541e-03 1.804524e-03 1.804643e-03 1.162879e-02 1.086798e-02 8.839709e-03 
    37.5                2.788669e-03 2.789541e-03 9.203980e-04 5.195614e-03 8.908639e-03 5.470585e-07 2.777473e-03 1.751886e-03 1.752025e-03 1.184403e-02 1.100656e-02 9.157427e-03 
    38.5                2.863934e-03 2.865983e-03 1.048261e-03 4.982188e-03 8.815513e-03 6.333765e-07 2.855240e-03 1.685574e-03 1.685845e-03 1.171303e-02 1.102893e-02 9.216300e-03 
    39.5                2.949250e-03 2.951583e-03 9.902805e-04 5.213723e-03 8.600155e-03 5.767970e-07 2.941723e-03 1.639106e-03 1.639284e-03 1.169884e-02 1.096813e-02 9.477976e-03 
    40.5                2.930730e-03 2.931448e-03 1.091610e-03 5.080194e-03 8.491003e-03 6.687628e-07 2.921532e-03 1.574626e-03 1.574899e-03 1.159577e-02 1.084231e-02 9.435723e-03 
    41.5                3.136480e-03 3.139496e-03 1.371909e-03 5.077530e-03 8.641392e-03 6.931192e-07 3.130255e-03 1.563030e-03 1.563300e-03 1.190395e-02 1.124566e-02 9.983320e-03 
    42.5                3.239056e-03 3.239775e-03 1.381880e-03 5.246358e-03 8.272577e-03 8.788936e-07 3.230931e-03 1.553707e-03 1.553765e-03 1.174906e-02 1.110274e-02 1.027546e-02 
    43.5                3.208862e-03 3.210775e-03 1.571823e-03 4.956742e-03 7.993152e-03 1.160610e-06 3.202607e-03 1.507037e-03 1.506992e-03 1.146060e-02 1.085965e-02 1.016350e-02 
    44.5                3.492342e-03 3.494369e-03 1.706610e-03 5.106620e-03 8.392602e-03 1.217954e-06 3.485959e-03 1.550533e-03 1.550695e-03 1.201327e-02 1.158572e-02 1.083792e-02 
    45.5                3.635165e-03 3.636462e-03 1.799060e-03 5.512014e-03 8.274829e-03 1.287748e-06 3.628926e-03 1.554736e-03 1.554955e-03 1.232732e-02 1.170380e-02 1.144262e-02 
    46.5                3.723648e-03 3.722293e-03 2.065176e-03 5.389723e-03 8.128132e-03 1.542262e-06 3.715936e-03 1.540864e-03 1.541131e-03 1.234737e-02 1.173998e-02 1.169421e-02 
    47.5                3.878961e-03 3.882147e-03 2.481564e-03 5.381125e-03 8.142287e-03 2.353837e-06 3.875843e-03 1.576837e-03 1.576915e-03 1.266097e-02 1.201885e-02 1.226703e-02 
    48.5                4.166706e-03 4.167966e-03 2.932350e-03 5.240663e-03 8.247161e-03 3.839365e-06 4.162026e-03 1.618950e-03 1.619028e-03 1.301100e-02 1.257803e-02 1.298756e-02 
    49.5                4.528697e-03 4.528156e-03 3.511602e-03 5.540040e-03 8.539799e-03 5.519610e-06 4.522989e-03 1.688518e-03 1.688501e-03 1.398707e-02 1.341076e-02 1.422988e-02 
    50.5                5.172993e-03 5.179405e-03 4.659304e-03 5.811912e-03 9.063522e-03 7.330731e-06 5.175207e-03 1.810802e-03 1.810947e-03 1.556838e-02 1.485170e-02 1.637458e-02 
    51.5                5.949211e-03 5.956361e-03 5.690081e-03 6.159359e-03 9.388045e-03 9.384815e-06 5.953742e-03 1.912870e-03 1.912945e-03 1.698755e-02 1.642751e-02 1.865792e-02 
    52.5                6.237885e-03 6.234674e-03 6.053301e-03 6.155826e-03 9.055433e-03 1.062075e-05 6.234319e-03 1.953594e-03 1.953619e-03 1.703352e-02 1.672600e-02 1.935746e-02 
    53.5                6.299504e-03 6.299819e-03 6.401870e-03 5.749421e-03 8.753700e-03 1.139712e-05 6.300361e-03 1.956549e-03 1.956496e-03 1.674656e-02 1.665589e-02 1.940905e-02 
    54.5                6.131930e-03 6.132860e-03 6.134065e-03 5.518737e-03 8.144381e-03 1.138518e-05 6.132290e-03 1.933095e-03 1.933059e-03 1.587800e-02 1.597955e-02 1.876729e-02 
    55.5                6.010968e-03 6.014391e-03 6.307779e-03 5.163094e-03 7.886149e-03 1.151771e-05 6.014411e-03 1.914407e-03 1.914530e-03 1.552346e-02 1.561123e-02 1.842753e-02 
    56.5                5.853473e-03 5.853534e-03 6.074176e-03 4.933605e-03 7.458865e-03 1.155522e-05 5.853745e-03 1.861541e-03 1.861331e-03 1.482495e-02 1.505721e-02 1.782275e-02 
    57.5                5.480015e-03 5.483366e-03 5.825207e-03 4.671411e-03 6.686229e-03 1.151818e-05 5.484632e-03 1.746447e-03 1.746294e-03 1.383474e-02 1.391549e-02 1.683955e-02 
    58.5                5.150989e-03 5.149816e-03 5.677276e-03 4.129916e-03 6.163332e-03 1.117133e-05 5.151807e-03 1.602327e-03 1.602293e-03 1.286618e-02 1.300968e-02 1.577994e-02 
    59.5                4.942404e-03 4.943064e-03 5.604622e-03 3.746544e-03 5.732575e-03 1.091679e-05 4.944921e-03 1.471556e-03 1.471699e-03 1.216087e-02 1.237801e-02 1.507932e-02 
    60.5                4.614633e-03 4.621114e-03 5.271869e-03 3.498512e-03 5.112942e-03 1.055746e-05 4.623641e-03 1.308300e-03 1.308278e-03 1.121463e-02 1.142689e-02 1.410933e-02 
    61.5                4.173631e-03 4.174583e-03 4.777494e-03 2.918437e-03 4.368764e-03 9.439245e-06 4.176697e-03 1.140044e-03 1.139927e-03 9.749918e-03 1.016725e-02 1.257074e-02 
    62.5                3.486887e-03 3.483088e-03 3.981059e-03 2.437021e-03 3.493588e-03 8.508454e-06 3.485976e-03 9.551613e-04 9.550609e-04 8.035055e-03 8.419231e-03 1.048394e-02 
    63.5                2.839940e-03 2.841188e-03 3.331867e-03 1.826286e-03 2.793902e-03 7.057903e-06 2.843023e-03 7.722042e-04 7.721283e-04 6.436418e-03 6.828420e-03 8.485032e-03 
    64.5                2.300724e-03 2.301767e-03 2.740053e-03 1.456195e-03 2.192911e-03 6.000117e-06 2.303379e-03 6.007522e-04 6.006906e-04 5.183684e-03 5.497359e-03 6.889780e-03 
    65.5                1.821085e-03 1.819279e-03 2.150723e-03 1.090625e-03 1.645656e-03 4.810962e-06 1.820889e-03 4.445314e-04 4.444901e-04 3.968120e-03 4.295053e-03 5.384749e-03 
    66.5                1.348196e-03 1.347692e-03 1.573052e-03 7.695275e-04 1.152491e-03 3.666642e-06 1.349029e-03 3.029804e-04 3.029410e-04 2.841918e-03 3.145425e-03 3.939023e-03 
    67.5                9.103274e-04 9.100066e-04 1.039941e-03 4.888098e-04 7.268651e-04 2.486305e-06 9.110535e-04 1.849285e-04 1.849258e-04 1.831818e-03 2.096382e-03 2.613327e-03 
    68.5                5.521639e-04 5.526167e-04 5.948433e-04 2.576222e-04 4.023586e-04 1.502487e-06 5.531534e-04 9.514421e-05 9.512849e-05 1.015331e-03 1.250336e-03 1.526510e-03 
    69.5                2.750712e-04 2.743583e-04 2.686493e-04 1.137034e-04 1.759355e-04 7.648578e-07 2.746700e-04 3.881996e-05 3.880842e-05 4.501149e-04 6.091890e-04 7.272064e-04 
    70.5                9.452222e-05 9.405059e-05 6.915303e-05 3.679438e-05 4.658372e-05 2.922430e-07 9.406100e-05 1.045694e-05 1.044815e-05 1.233236e-04 2.021732e-04 2.320159e-04 
    71.5                1.669727e-05 1.660441e-05 9.441405e-06 5.701673e-06 6.107586e-06 6.298908e-08 1.659008e-05 1.488874e-06 1.486137e-06 1.720848e-05 3.480312e-05 3.868257e-05 
    72.5                1.052586e-06 1.034316e-06 2.087961e-07 2.442350e-07 1.447738e-07 6.224366e-09 1.031001e-06 5.574552e-08 5.542939e-08 5.027498e-07 2.097651e-06 2.158164e-06 
    73.5                0.000000e+00 0.000000e+00 0.000000e+00 0.000000e+00 0.000000e+00 0.000000e+00 0.000000e+00 0.000000e+00 0.000000e+00 0.000000e+00 0.000000e+00 0.000000e+00 
    74.5                0.000000e+00 0.000000e+00 0.000000e+00 0.000000e+00 0.000000e+00 0.000000e+00 0.000000e+00 0.000000e+00 0.000000e+00 0.000000e+00 0.000000e+00 0.000000e+00 
    75.5                0.000000e+00 0.000000e+00 0.000000e+00 0.000000e+00 0.000000e+00 0.000000e+00 0.000000e+00 0.000000e+00 0.000000e+00 0.000000e+00 0.000000e+00 0.000000e+00 
    76.5                0.000000e+00 0.000000e+00 0.000000e+00 0.000000e+00 0.000000e+00 0.000000e+00 0.000000e+00 0.000000e+00 0.000000e+00 0.000000e+00 0.000000e+00 0.000000e+00 
    77.5                0.000000e+00 0.000000e+00 0.000000e+00 0.000000e+00 0.000000e+00 0.000000e+00 0.000000e+00 0.000000e+00 0.000000e+00 0.000000e+00 0.000000e+00 0.000000e+00 
    78.5                0.000000e+00 0.000000e+00 0.000000e+00 0.000000e+00 0.000000e+00 0.000000e+00 0.000000e+00 0.000000e+00 0.000000e+00 0.000000e+00 0.000000e+00 0.000000e+00 
    79.5                0.000000e+00 0.000000e+00 0.000000e+00 0.000000e+00 0.000000e+00 0.000000e+00 0.000000e+00 0.000000e+00 0.000000e+00 0.000000e+00 0.000000e+00 0.000000e+00 


