# 80 rows of flux data
# 12 columns of flux data
# 
# total cross-sectional flux  2.308099e+00 /m^2/yr
#
#                             +x ram      -x wake      +y port -y starboard    +z zenith     -z nadir        Earth          Sun     anti-Sun      rot (x)      rot (y)      rot (z) 
# average speed (km/s)         24.04        24.88        25.46        21.54        21.16        26.44        25.26        24.79        24.81        23.71        23.95        24.40 
# total flux (#/m2/yr)  6.560967e-01 7.694441e-01 9.685350e-01 4.088708e-01 4.884642e-01 2.159431e-03 1.006307e+00 1.008436e+00 1.015171e+00 1.546729e+00 1.604896e+00 2.202469e+00 
# velocity (km/s)
     0.5                0.000000e+00 0.000000e+00 0.000000e+00 0.000000e+00 0.000000e+00 0.000000e+00 0.000000e+00 0.000000e+00 0.000000e+00 0.000000e+00 0.000000e+00 0.000000e+00 
     1.5                0.000000e+00 0.000000e+00 0.000000e+00 0.000000e+00 0.000000e+00 0.000000e+00 0.000000e+00 0.000000e+00 0.000000e+00 0.000000e+00 0.000000e+00 0.000000e+00 
     2.5                5.537245e-06 0.000000e+00 1.125172e-06 1.170909e-06 2.389065e-06 2.751325e-10 1.341949e-06 6.633750e-07 1.004256e-06 3.540530e-06 6.099965e-06 6.207828e-06 
     3.5                1.464721e-04 6.266964e-06 7.549910e-05 6.687797e-05 7.352950e-05 7.998422e-08 8.216540e-05 4.798400e-05 5.493752e-05 1.723450e-04 1.796083e-04 2.321127e-04 
     4.5                6.042339e-04 1.762682e-04 4.229456e-04 3.236147e-04 3.915631e-04 5.946132e-07 4.579851e-04 2.661825e-04 2.958982e-04 9.103082e-04 9.370829e-04 1.199121e-03 
     5.5                1.570554e-03 6.919937e-04 1.332240e-03 1.011631e-03 1.310094e-03 1.909659e-06 1.449042e-03 9.246170e-04 9.834575e-04 2.908876e-03 2.838667e-03 3.620221e-03 
     6.5                2.916250e-03 2.109184e-03 2.851370e-03 2.209679e-03 2.935377e-03 4.311126e-06 3.113515e-03 2.177387e-03 2.242307e-03 6.340799e-03 6.322485e-03 7.919896e-03 
     7.5                5.110744e-03 3.812450e-03 4.962395e-03 3.871508e-03 5.331985e-03 7.661682e-06 5.436865e-03 4.055704e-03 4.099945e-03 1.122232e-02 1.130751e-02 1.394345e-02 
     8.5                7.547321e-03 6.374486e-03 7.942138e-03 6.125888e-03 8.317731e-03 1.217961e-05 8.681234e-03 6.674198e-03 6.683436e-03 1.774414e-02 1.760845e-02 2.197962e-02 
     9.5                9.568910e-03 9.642877e-03 1.091454e-02 8.527605e-03 1.162891e-02 1.671507e-05 1.194308e-02 9.812366e-03 9.813696e-03 2.459808e-02 2.442227e-02 3.036221e-02 
    10.5                1.161232e-02 1.287459e-02 1.344807e-02 1.065630e-02 1.503250e-02 2.071363e-05 1.476563e-02 1.332465e-02 1.336937e-02 3.092163e-02 3.128958e-02 3.816419e-02 
    11.5                1.337489e-02 1.514737e-02 1.591573e-02 1.245490e-02 1.782532e-02 2.523012e-05 1.745975e-02 1.682158e-02 1.689545e-02 3.655796e-02 3.675200e-02 4.469208e-02 
    12.5                1.466786e-02 1.737368e-02 1.786804e-02 1.362466e-02 1.964724e-02 2.902439e-05 1.954907e-02 1.994851e-02 2.003339e-02 4.059101e-02 4.107876e-02 4.990832e-02 
    13.5                1.670309e-02 1.873711e-02 1.990849e-02 1.477707e-02 2.101723e-02 3.378413e-05 2.169010e-02 2.303110e-02 2.311430e-02 4.435996e-02 4.505723e-02 5.507230e-02 
    14.5                1.848605e-02 2.048084e-02 2.242201e-02 1.599766e-02 2.198104e-02 3.913981e-05 2.427001e-02 2.630205e-02 2.639601e-02 4.828751e-02 4.883792e-02 6.077863e-02 
    15.5                2.014232e-02 2.230725e-02 2.490612e-02 1.697061e-02 2.235399e-02 4.500883e-05 2.677053e-02 2.945286e-02 2.955738e-02 5.158661e-02 5.218071e-02 6.623982e-02 
    16.5                2.167973e-02 2.430806e-02 2.742111e-02 1.784915e-02 2.267451e-02 5.188708e-05 2.929768e-02 3.247579e-02 3.259114e-02 5.480566e-02 5.559916e-02 7.166868e-02 
    17.5                2.315030e-02 2.576539e-02 2.969720e-02 1.835993e-02 2.252773e-02 5.803079e-05 3.154427e-02 3.517703e-02 3.530705e-02 5.718438e-02 5.811918e-02 7.616005e-02 
    18.5                2.423640e-02 2.714991e-02 3.184197e-02 1.876561e-02 2.210361e-02 6.413063e-05 3.363611e-02 3.761082e-02 3.774807e-02 5.916259e-02 6.008849e-02 8.010480e-02 
    19.5                2.507166e-02 2.843383e-02 3.352170e-02 1.893841e-02 2.176112e-02 6.896755e-05 3.527175e-02 3.954088e-02 3.968636e-02 6.058852e-02 6.182633e-02 8.322587e-02 
    20.5                2.586865e-02 2.913523e-02 3.496834e-02 1.877631e-02 2.107456e-02 7.355247e-05 3.664263e-02 4.091734e-02 4.108017e-02 6.132806e-02 6.280208e-02 8.541505e-02 
    21.5                2.699824e-02 2.972948e-02 3.674784e-02 1.866646e-02 2.041075e-02 7.908051e-05 3.835092e-02 4.243991e-02 4.262277e-02 6.241444e-02 6.398418e-02 8.808480e-02 
    22.5                2.773500e-02 3.078505e-02 3.855623e-02 1.876608e-02 2.007997e-02 8.489878e-05 4.011227e-02 4.403424e-02 4.423523e-02 6.396689e-02 6.550473e-02 9.099226e-02 
    23.5                2.809076e-02 3.168288e-02 3.981883e-02 1.852328e-02 1.932751e-02 8.984752e-05 4.129918e-02 4.498598e-02 4.520292e-02 6.443697e-02 6.623345e-02 9.277380e-02 
    24.5                2.832364e-02 3.193102e-02 4.071973e-02 1.796885e-02 1.847229e-02 9.325601e-05 4.211420e-02 4.532375e-02 4.556240e-02 6.426646e-02 6.623160e-02 9.342580e-02 
    25.5                2.831601e-02 3.209591e-02 4.152032e-02 1.726555e-02 1.748813e-02 9.698708e-05 4.281785e-02 4.537944e-02 4.564069e-02 6.380867e-02 6.589055e-02 9.363015e-02 
    26.5                2.770765e-02 3.207484e-02 4.181157e-02 1.629346e-02 1.641729e-02 9.951728e-05 4.300603e-02 4.482494e-02 4.510494e-02 6.261569e-02 6.477871e-02 9.260711e-02 
    27.5                2.711260e-02 3.154211e-02 4.148424e-02 1.522022e-02 1.527101e-02 1.011780e-04 4.257143e-02 4.376696e-02 4.406082e-02 6.071741e-02 6.318096e-02 9.062175e-02 
    28.5                2.629881e-02 3.062917e-02 4.100453e-02 1.404719e-02 1.417596e-02 1.010066e-04 4.199273e-02 4.235629e-02 4.266245e-02 5.862023e-02 6.103617e-02 8.796721e-02 
    29.5                2.516478e-02 2.979670e-02 4.009420e-02 1.285646e-02 1.305204e-02 1.000333e-04 4.098436e-02 4.066663e-02 4.098257e-02 5.608033e-02 5.865637e-02 8.477254e-02 
    30.5                2.391335e-02 2.852030e-02 3.878027e-02 1.155802e-02 1.188099e-02 9.795301e-05 3.957080e-02 3.855910e-02 3.888134e-02 5.305541e-02 5.571820e-02 8.074216e-02 
    31.5                2.240375e-02 2.710097e-02 3.720795e-02 1.009721e-02 1.068961e-02 9.426025e-05 3.789957e-02 3.612692e-02 3.645401e-02 4.961834e-02 5.239364e-02 7.606724e-02 
    32.5                2.061982e-02 2.545777e-02 3.518988e-02 8.659527e-03 9.519354e-03 8.935111e-05 3.578896e-02 3.334222e-02 3.366839e-02 4.580251e-02 4.859894e-02 7.066809e-02 
    33.5                1.858496e-02 2.359841e-02 3.259513e-02 7.326685e-03 8.372691e-03 8.330745e-05 3.310924e-02 3.022954e-02 3.054219e-02 4.155595e-02 4.436567e-02 6.453068e-02 
    34.5                1.655025e-02 2.138317e-02 2.964364e-02 6.032020e-03 7.258836e-03 7.585941e-05 3.007934e-02 2.690446e-02 2.720047e-02 3.702542e-02 3.980004e-02 5.786317e-02 
    35.5                1.449139e-02 1.910810e-02 2.656543e-02 4.774991e-03 6.203275e-03 6.720064e-05 2.692867e-02 2.355180e-02 2.382933e-02 3.243325e-02 3.517023e-02 5.106025e-02 
    36.5                1.247258e-02 1.679626e-02 2.343712e-02 3.650282e-03 5.219438e-03 5.832057e-05 2.373662e-02 2.026698e-02 2.052016e-02 2.795071e-02 3.057044e-02 4.432747e-02 
    37.5                1.050140e-02 1.456352e-02 2.027250e-02 2.702948e-03 4.331549e-03 4.953639e-05 2.051675e-02 1.712193e-02 1.734971e-02 2.364932e-02 2.613062e-02 3.780482e-02 
    38.5                8.546212e-03 1.236034e-02 1.708241e-02 1.925826e-03 3.517933e-03 4.083733e-05 1.727891e-02 1.409842e-02 1.429423e-02 1.952220e-02 2.176272e-02 3.143138e-02 
    39.5                6.645285e-03 1.023221e-02 1.387341e-02 1.306805e-03 2.770363e-03 3.238577e-05 1.402821e-02 1.121380e-02 1.137385e-02 1.556091e-02 1.754329e-02 2.526205e-02 
    40.5                4.908646e-03 8.128515e-03 1.075246e-02 8.368420e-04 2.091294e-03 2.462002e-05 1.086998e-02 8.529048e-03 8.653528e-03 1.186016e-02 1.353437e-02 1.942490e-02 
    41.5                3.459110e-03 6.158503e-03 7.921058e-03 5.029165e-04 1.508867e-03 1.782704e-05 8.007031e-03 6.187406e-03 6.277819e-03 8.608686e-03 9.972045e-03 1.424690e-02 
    42.5                2.303719e-03 4.430164e-03 5.554999e-03 2.876374e-04 1.040526e-03 1.228617e-05 5.615606e-03 4.270388e-03 4.332836e-03 5.963467e-03 6.976332e-03 9.943265e-03 
    43.5                1.375606e-03 3.051761e-03 3.645893e-03 1.574332e-04 6.742052e-04 8.007847e-06 3.686323e-03 2.766747e-03 2.805901e-03 3.878085e-03 4.583295e-03 6.515341e-03 
    44.5                7.124762e-04 1.940700e-03 2.147562e-03 7.963617e-05 3.934850e-04 4.802583e-06 2.172075e-03 1.624910e-03 1.645696e-03 2.269275e-03 2.742640e-03 3.868130e-03 
    45.5                2.937163e-04 1.085787e-03 1.088690e-03 3.617891e-05 1.980761e-04 2.527466e-06 1.101564e-03 8.264036e-04 8.352218e-04 1.145444e-03 1.423581e-03 1.987288e-03 
    46.5                8.565545e-05 5.086997e-04 4.400399e-04 1.425335e-05 7.973239e-05 1.127627e-06 4.454714e-04 3.433421e-04 3.461154e-04 4.624528e-04 6.112822e-04 8.334222e-04 
    47.5                1.656440e-05 1.761050e-04 1.292295e-04 4.408164e-06 2.338318e-05 3.860606e-07 1.309065e-04 1.063896e-04 1.065723e-04 1.360264e-04 1.972971e-04 2.600686e-04 
    48.5                1.446945e-06 4.269637e-05 2.598935e-05 9.666617e-07 4.692986e-06 9.362901e-08 2.634837e-05 2.306880e-05 2.297015e-05 2.743657e-05 4.495717e-05 5.679717e-05 
    49.5                1.245066e-08 5.980495e-06 2.780300e-06 1.352602e-07 5.033949e-07 1.384528e-08 2.823909e-06 2.889209e-06 2.853337e-06 2.968813e-06 6.052779e-06 7.134792e-06 
    50.5                0.000000e+00 1.760168e-07 5.219045e-08 4.401389e-09 9.593967e-09 4.670712e-10 5.331308e-08 7.730714e-08 7.448696e-08 5.771611e-08 1.765244e-07 1.897233e-07 
    51.5                0.000000e+00 0.000000e+00 0.000000e+00 0.000000e+00 0.000000e+00 0.000000e+00 0.000000e+00 0.000000e+00 0.000000e+00 0.000000e+00 0.000000e+00 0.000000e+00 
    52.5                0.000000e+00 0.000000e+00 0.000000e+00 0.000000e+00 0.000000e+00 0.000000e+00 0.000000e+00 0.000000e+00 0.000000e+00 0.000000e+00 0.000000e+00 0.000000e+00 
    53.5                0.000000e+00 0.000000e+00 0.000000e+00 0.000000e+00 0.000000e+00 0.000000e+00 0.000000e+00 0.000000e+00 0.000000e+00 0.000000e+00 0.000000e+00 0.000000e+00 
    54.5                0.000000e+00 0.000000e+00 0.000000e+00 0.000000e+00 0.000000e+00 0.000000e+00 0.000000e+00 0.000000e+00 0.000000e+00 0.000000e+00 0.000000e+00 0.000000e+00 
    55.5                0.000000e+00 0.000000e+00 0.000000e+00 0.000000e+00 0.000000e+00 0.000000e+00 0.000000e+00 0.000000e+00 0.000000e+00 0.000000e+00 0.000000e+00 0.000000e+00 
    56.5                0.000000e+00 0.000000e+00 0.000000e+00 0.000000e+00 0.000000e+00 0.000000e+00 0.000000e+00 0.000000e+00 0.000000e+00 0.000000e+00 0.000000e+00 0.000000e+00 
    57.5                0.000000e+00 0.000000e+00 0.000000e+00 0.000000e+00 0.000000e+00 0.000000e+00 0.000000e+00 0.000000e+00 0.000000e+00 0.000000e+00 0.000000e+00 0.000000e+00 
    58.5                0.000000e+00 0.000000e+00 0.000000e+00 0.000000e+00 0.000000e+00 0.000000e+00 0.000000e+00 0.000000e+00 0.000000e+00 0.000000e+00 0.000000e+00 0.000000e+00 
    59.5                0.000000e+00 0.000000e+00 0.000000e+00 0.000000e+00 0.000000e+00 0.000000e+00 0.000000e+00 0.000000e+00 0.000000e+00 0.000000e+00 0.000000e+00 0.000000e+00 
    60.5                0.000000e+00 0.000000e+00 0.000000e+00 0.000000e+00 0.000000e+00 0.000000e+00 0.000000e+00 0.000000e+00 0.000000e+00 0.000000e+00 0.000000e+00 0.000000e+00 
    61.5                0.000000e+00 0.000000e+00 0.000000e+00 0.000000e+00 0.000000e+00 0.000000e+00 0.000000e+00 0.000000e+00 0.000000e+00 0.000000e+00 0.000000e+00 0.000000e+00 
    62.5                0.000000e+00 0.000000e+00 0.000000e+00 0.000000e+00 0.000000e+00 0.000000e+00 0.000000e+00 0.000000e+00 0.000000e+00 0.000000e+00 0.000000e+00 0.000000e+00 
    63.5                0.000000e+00 0.000000e+00 0.000000e+00 0.000000e+00 0.000000e+00 0.000000e+00 0.000000e+00 0.000000e+00 0.000000e+00 0.000000e+00 0.000000e+00 0.000000e+00 
    64.5                0.000000e+00 0.000000e+00 0.000000e+00 0.000000e+00 0.000000e+00 0.000000e+00 0.000000e+00 0.000000e+00 0.000000e+00 0.000000e+00 0.000000e+00 0.000000e+00 
    65.5                0.000000e+00 0.000000e+00 0.000000e+00 0.000000e+00 0.000000e+00 0.000000e+00 0.000000e+00 0.000000e+00 0.000000e+00 0.000000e+00 0.000000e+00 0.000000e+00 
    66.5                0.000000e+00 0.000000e+00 0.000000e+00 0.000000e+00 0.000000e+00 0.000000e+00 0.000000e+00 0.000000e+00 0.000000e+00 0.000000e+00 0.000000e+00 0.000000e+00 
    67.5                0.000000e+00 0.000000e+00 0.000000e+00 0.000000e+00 0.000000e+00 0.000000e+00 0.000000e+00 0.000000e+00 0.000000e+00 0.000000e+00 0.000000e+00 0.000000e+00 
    68.5                0.000000e+00 0.000000e+00 0.000000e+00 0.000000e+00 0.000000e+00 0.000000e+00 0.000000e+00 0.000000e+00 0.000000e+00 0.000000e+00 0.000000e+00 0.000000e+00 
    69.5                0.000000e+00 0.000000e+00 0.000000e+00 0.000000e+00 0.000000e+00 0.000000e+00 0.000000e+00 0.000000e+00 0.000000e+00 0.000000e+00 0.000000e+00 0.000000e+00 
    70.5                0.000000e+00 0.000000e+00 0.000000e+00 0.000000e+00 0.000000e+00 0.000000e+00 0.000000e+00 0.000000e+00 0.000000e+00 0.000000e+00 0.000000e+00 0.000000e+00 
    71.5                0.000000e+00 0.000000e+00 0.000000e+00 0.000000e+00 0.000000e+00 0.000000e+00 0.000000e+00 0.000000e+00 0.000000e+00 0.000000e+00 0.000000e+00 0.000000e+00 
    72.5                0.000000e+00 0.000000e+00 0.000000e+00 0.000000e+00 0.000000e+00 0.000000e+00 0.000000e+00 0.000000e+00 0.000000e+00 0.000000e+00 0.000000e+00 0.000000e+00 
    73.5                0.000000e+00 0.000000e+00 0.000000e+00 0.000000e+00 0.000000e+00 0.000000e+00 0.000000e+00 0.000000e+00 0.000000e+00 0.000000e+00 0.000000e+00 0.000000e+00 
    74.5                0.000000e+00 0.000000e+00 0.000000e+00 0.000000e+00 0.000000e+00 0.000000e+00 0.000000e+00 0.000000e+00 0.000000e+00 0.000000e+00 0.000000e+00 0.000000e+00 
    75.5                0.000000e+00 0.000000e+00 0.000000e+00 0.000000e+00 0.000000e+00 0.000000e+00 0.000000e+00 0.000000e+00 0.000000e+00 0.000000e+00 0.000000e+00 0.000000e+00 
    76.5                0.000000e+00 0.000000e+00 0.000000e+00 0.000000e+00 0.000000e+00 0.000000e+00 0.000000e+00 0.000000e+00 0.000000e+00 0.000000e+00 0.000000e+00 0.000000e+00 
    77.5                0.000000e+00 0.000000e+00 0.000000e+00 0.000000e+00 0.000000e+00 0.000000e+00 0.000000e+00 0.000000e+00 0.000000e+00 0.000000e+00 0.000000e+00 0.000000e+00 
    78.5                0.000000e+00 0.000000e+00 0.000000e+00 0.000000e+00 0.000000e+00 0.000000e+00 0.000000e+00 0.000000e+00 0.000000e+00 0.000000e+00 0.000000e+00 0.000000e+00 
    79.5                0.000000e+00 0.000000e+00 0.000000e+00 0.000000e+00 0.000000e+00 0.000000e+00 0.000000e+00 0.000000e+00 0.000000e+00 0.000000e+00 0.000000e+00 0.000000e+00 


