# 80 rows of flux data
# 12 columns of flux data
# 
# total cross-sectional flux  1.050426e+00 /m^2/yr
#
#                             +x ram      -x wake      +y port -y starboard    +z zenith     -z nadir        Earth          Sun     anti-Sun      rot (x)      rot (y)      rot (z) 
# average speed (km/s)         36.98        38.26        41.66        28.27        34.06        37.63        30.04        28.19        27.70        33.81        35.77        35.08 
# total flux (#/m2/yr)  2.597507e-01 2.178710e-01 2.033319e-01 3.667654e-01 5.197404e-01 3.524938e-04 9.179656e-02 1.725224e-01 1.674811e-01 8.693812e-01 7.834933e-01 8.181424e-01 
# velocity (km/s)
     0.5                0.000000e+00 0.000000e+00 0.000000e+00 0.000000e+00 0.000000e+00 0.000000e+00 0.000000e+00 0.000000e+00 0.000000e+00 0.000000e+00 0.000000e+00 0.000000e+00 
     1.5                0.000000e+00 0.000000e+00 0.000000e+00 0.000000e+00 0.000000e+00 0.000000e+00 0.000000e+00 0.000000e+00 0.000000e+00 0.000000e+00 0.000000e+00 0.000000e+00 
     2.5                2.895121e-05 1.195143e-04 7.931525e-05 8.122199e-05 1.557476e-04 6.783911e-08 2.380060e-05 8.312952e-05 7.660104e-05 2.499142e-04 2.407211e-04 2.427629e-04 
     3.5                3.468924e-04 4.752970e-04 4.376661e-04 3.618160e-04 7.861280e-04 4.115975e-07 1.077859e-04 4.443479e-04 4.122762e-04 1.258518e-03 1.268519e-03 1.274821e-03 
     4.5                9.566440e-04 8.473812e-04 9.408182e-04 8.032742e-04 1.691091e-03 1.063599e-06 2.255592e-04 9.848311e-04 9.429090e-04 2.729203e-03 2.757985e-03 2.787103e-03 
     5.5                1.620763e-03 1.261885e-03 1.444174e-03 1.415245e-03 2.734834e-03 1.842387e-06 3.829915e-04 1.624906e-03 1.581915e-03 4.444338e-03 4.424523e-03 4.501045e-03 
     6.5                2.301220e-03 1.639646e-03 1.898669e-03 2.240907e-03 3.902245e-03 2.577991e-06 5.738218e-04 2.267866e-03 2.238325e-03 6.376604e-03 6.177222e-03 6.332767e-03 
     7.5                2.876843e-03 2.006525e-03 2.246292e-03 3.196188e-03 5.060258e-03 3.293735e-06 7.928576e-04 2.856327e-03 2.838967e-03 8.310122e-03 7.828783e-03 8.093899e-03 
     8.5                3.399156e-03 2.348037e-03 2.537474e-03 4.163253e-03 6.163368e-03 3.933009e-06 1.004211e-03 3.398625e-03 3.396127e-03 1.015885e-02 9.373383e-03 9.755735e-03 
     9.5                3.817266e-03 2.605271e-03 2.732392e-03 5.127761e-03 7.187303e-03 4.312980e-06 1.207699e-03 3.874835e-03 3.869902e-03 1.184865e-02 1.070778e-02 1.119796e-02 
    10.5                4.154360e-03 2.910217e-03 2.875471e-03 6.118899e-03 8.148521e-03 4.789445e-06 1.420089e-03 4.337075e-03 4.318553e-03 1.347706e-02 1.196969e-02 1.259784e-02 
    11.5                4.525553e-03 3.136676e-03 2.997098e-03 7.304209e-03 9.266580e-03 5.122773e-06 1.640263e-03 4.805864e-03 4.771526e-03 1.532795e-02 1.332329e-02 1.410678e-02 
    12.5                4.793868e-03 3.310055e-03 3.019553e-03 8.249384e-03 1.006513e-02 5.369136e-06 1.853696e-03 5.138053e-03 5.095298e-03 1.669404e-02 1.429091e-02 1.521309e-02 
    13.5                4.954050e-03 3.344620e-03 2.945981e-03 9.133217e-03 1.073561e-02 5.319590e-06 1.980147e-03 5.269633e-03 5.226247e-03 1.776804e-02 1.498793e-02 1.603367e-02 
    14.5                4.853455e-03 3.466284e-03 2.885010e-03 9.634809e-03 1.108185e-02 5.324373e-06 2.055566e-03 5.327120e-03 5.276980e-03 1.834292e-02 1.528689e-02 1.642100e-02 
    15.5                5.007599e-03 3.529537e-03 2.820024e-03 1.056340e-02 1.177855e-02 5.379430e-06 2.223171e-03 5.442011e-03 5.392308e-03 1.950762e-02 1.601151e-02 1.728915e-02 
    16.5                4.962631e-03 3.579291e-03 2.773587e-03 1.081233e-02 1.192866e-02 5.361364e-06 2.255576e-03 5.456792e-03 5.407044e-03 1.976562e-02 1.613101e-02 1.745340e-02 
    17.5                4.979800e-03 3.590757e-03 2.695750e-03 1.121408e-02 1.216676e-02 5.371466e-06 2.342640e-03 5.426172e-03 5.377143e-03 2.019279e-02 1.634472e-02 1.773892e-02 
    18.5                4.941965e-03 3.653176e-03 2.594654e-03 1.163731e-02 1.241792e-02 5.213252e-06 2.428428e-03 5.384157e-03 5.334597e-03 2.061813e-02 1.655828e-02 1.801487e-02 
    19.5                4.901294e-03 3.635226e-03 2.549988e-03 1.174283e-02 1.243608e-02 5.282849e-06 2.473379e-03 5.275119e-03 5.222704e-03 2.069952e-02 1.650426e-02 1.799455e-02 
    20.5                4.827361e-03 3.580544e-03 2.389898e-03 1.169698e-02 1.220216e-02 5.243743e-06 2.501311e-03 5.087775e-03 5.038893e-03 2.037156e-02 1.620088e-02 1.770572e-02 
    21.5                4.674874e-03 3.629837e-03 2.314641e-03 1.182072e-02 1.221758e-02 5.169240e-06 2.533711e-03 4.946523e-03 4.898262e-03 2.042902e-02 1.613000e-02 1.765950e-02 
    22.5                4.740479e-03 3.553918e-03 2.236130e-03 1.207021e-02 1.232836e-02 5.187686e-06 2.615334e-03 4.822719e-03 4.774522e-03 2.066109e-02 1.620323e-02 1.778122e-02 
    23.5                4.518805e-03 3.411002e-03 2.076484e-03 1.145069e-02 1.164362e-02 4.877219e-06 2.502561e-03 4.514200e-03 4.470350e-03 1.953790e-02 1.534859e-02 1.684291e-02 
    24.5                4.258079e-03 3.327887e-03 1.947563e-03 1.099132e-02 1.112360e-02 4.650484e-06 2.447812e-03 4.246712e-03 4.204433e-03 1.871028e-02 1.465304e-02 1.608637e-02 
    25.5                4.163872e-03 3.241200e-03 1.847451e-03 1.078073e-02 1.083161e-02 4.564857e-06 2.424568e-03 4.017165e-03 3.976350e-03 1.824887e-02 1.425940e-02 1.567509e-02 
    26.5                3.987784e-03 3.213467e-03 1.788309e-03 1.038155e-02 1.041693e-02 4.612133e-06 2.397261e-03 3.808118e-03 3.766830e-03 1.762240e-02 1.375579e-02 1.512720e-02 
    27.5                3.923203e-03 3.088131e-03 1.705652e-03 9.972187e-03 9.969804e-03 4.608289e-06 2.370120e-03 3.600927e-03 3.561274e-03 1.694988e-02 1.323206e-02 1.455264e-02 
    28.5                3.745987e-03 3.019588e-03 1.605065e-03 9.556275e-03 9.491842e-03 4.594394e-06 2.324147e-03 3.336957e-03 3.298815e-03 1.622090e-02 1.265562e-02 1.393255e-02 
    29.5                3.608704e-03 2.805626e-03 1.538703e-03 9.027182e-03 8.952104e-03 4.672652e-06 2.219015e-03 3.029509e-03 2.990450e-03 1.536894e-02 1.195865e-02 1.318255e-02 
    30.5                3.342246e-03 2.731264e-03 1.409289e-03 8.624483e-03 8.497575e-03 4.328859e-06 2.118281e-03 2.808751e-03 2.772439e-03 1.459014e-02 1.132726e-02 1.249310e-02 
    31.5                3.232481e-03 2.725860e-03 1.365435e-03 8.363335e-03 8.197017e-03 4.566428e-06 2.132232e-03 2.644321e-03 2.609273e-03 1.418660e-02 1.099071e-02 1.213723e-02 
    32.5                3.150706e-03 2.620680e-03 1.381845e-03 7.804763e-03 7.698312e-03 4.947241e-06 2.042460e-03 2.435121e-03 2.397693e-03 1.343741e-02 1.044700e-02 1.154158e-02 
    33.5                3.063345e-03 2.687360e-03 1.443111e-03 7.504158e-03 7.435062e-03 5.711578e-06 2.038947e-03 2.258116e-03 2.216831e-03 1.312697e-02 1.022327e-02 1.131846e-02 
    34.5                3.127082e-03 2.692608e-03 1.502376e-03 7.502107e-03 7.458060e-03 6.075700e-06 2.063938e-03 2.175125e-03 2.130502e-03 1.324282e-02 1.029897e-02 1.140903e-02 
    35.5                3.015631e-03 2.607399e-03 1.578214e-03 6.782318e-03 6.894763e-03 6.444263e-06 1.921346e-03 2.040333e-03 1.992816e-03 1.237056e-02 9.708040e-03 1.073728e-02 
    36.5                2.927581e-03 2.664481e-03 1.652650e-03 6.541075e-03 6.737546e-03 6.839505e-06 1.890758e-03 1.913538e-03 1.862543e-03 1.216691e-02 9.571586e-03 1.057879e-02 
    37.5                3.052748e-03 2.750635e-03 1.762052e-03 6.489631e-03 6.824119e-03 6.826462e-06 1.870508e-03 1.859498e-03 1.803588e-03 1.231383e-02 9.807860e-03 1.077769e-02 
    38.5                2.967901e-03 2.958070e-03 1.981561e-03 6.095381e-03 6.753129e-03 6.759107e-06 1.770144e-03 1.792721e-03 1.726321e-03 1.218500e-02 9.856216e-03 1.072818e-02 
    39.5                3.210853e-03 2.847612e-03 2.157693e-03 5.868768e-03 6.760789e-03 6.845282e-06 1.728815e-03 1.743214e-03 1.670095e-03 1.221561e-02 9.979646e-03 1.079612e-02 
    40.5                3.156833e-03 2.940697e-03 2.165220e-03 5.710378e-03 6.630293e-03 6.938399e-06 1.702494e-03 1.674896e-03 1.602945e-03 1.201961e-02 9.914211e-03 1.070659e-02 
    41.5                3.193269e-03 3.254557e-03 2.483369e-03 5.481916e-03 6.788906e-03 7.284255e-06 1.653772e-03 1.661726e-03 1.577785e-03 1.229054e-02 1.032263e-02 1.104588e-02 
    42.5                3.485971e-03 3.162433e-03 2.790897e-03 5.054336e-03 6.783127e-03 7.456229e-06 1.542723e-03 1.660034e-03 1.566059e-03 1.224839e-02 1.049932e-02 1.112699e-02 
    43.5                3.388807e-03 3.345865e-03 2.849384e-03 4.670236e-03 6.584559e-03 7.173230e-06 1.432171e-03 1.609428e-03 1.514456e-03 1.182589e-02 1.041625e-02 1.095341e-02 
    44.5                3.550853e-03 3.685120e-03 3.258269e-03 4.646235e-03 7.016022e-03 7.654382e-06 1.443566e-03 1.663761e-03 1.555710e-03 1.254458e-02 1.116491e-02 1.165616e-02 
    45.5                3.916915e-03 3.663100e-03 3.485022e-03 4.448160e-03 7.137546e-03 7.549270e-06 1.375796e-03 1.667791e-03 1.554278e-03 1.270092e-02 1.154105e-02 1.195602e-02 
    46.5                3.841612e-03 3.762576e-03 3.628469e-03 4.212597e-03 7.079286e-03 7.906960e-06 1.321501e-03 1.633344e-03 1.517453e-03 1.258574e-02 1.152928e-02 1.191780e-02 
    47.5                3.987584e-03 4.017565e-03 3.889060e-03 4.052459e-03 7.247410e-03 8.163769e-06 1.281412e-03 1.656437e-03 1.534535e-03 1.278248e-02 1.199077e-02 1.232069e-02 
    48.5                4.076578e-03 4.401352e-03 4.327716e-03 3.750653e-03 7.585710e-03 7.678771e-06 1.173118e-03 1.708603e-03 1.574538e-03 1.312346e-02 1.263186e-02 1.281372e-02 
    49.5                4.521355e-03 4.839460e-03 4.821537e-03 3.676688e-03 8.084767e-03 8.308601e-06 1.161185e-03 1.774971e-03 1.628205e-03 1.387630e-02 1.373893e-02 1.385445e-02 
    50.5                4.812939e-03 5.541401e-03 5.532526e-03 3.504795e-03 8.810528e-03 8.453854e-06 1.105927e-03 1.867479e-03 1.701090e-03 1.487345e-02 1.511420e-02 1.508864e-02 
    51.5                5.494846e-03 6.100902e-03 6.483875e-03 3.290851e-03 9.788817e-03 8.732090e-06 1.036480e-03 1.963668e-03 1.772921e-03 1.616570e-02 1.687740e-02 1.667134e-02 
    52.5                6.192830e-03 6.100875e-03 6.978971e-03 2.990830e-03 1.017700e-02 8.678309e-06 9.411017e-04 2.013948e-03 1.813325e-03 1.652781e-02 1.774509e-02 1.740344e-02 
    53.5                6.307748e-03 6.185002e-03 7.165986e-03 2.674907e-03 1.018775e-02 8.385263e-06 8.413790e-04 2.028655e-03 1.827714e-03 1.633819e-02 1.792305e-02 1.748852e-02 
    54.5                6.422059e-03 5.827881e-03 7.140550e-03 2.379160e-03 9.980300e-03 7.792435e-06 7.449190e-04 2.004847e-03 1.808831e-03 1.584312e-02 1.757446e-02 1.706816e-02 
    55.5                6.352382e-03 5.871508e-03 7.015385e-03 2.192304e-03 9.713630e-03 7.566100e-06 6.848079e-04 1.971784e-03 1.783054e-03 1.533497e-02 1.734583e-02 1.681705e-02 
    56.5                6.211954e-03 5.598704e-03 6.931264e-03 1.964272e-03 9.469175e-03 7.068390e-06 6.148405e-04 1.923236e-03 1.740693e-03 1.484873e-02 1.683029e-02 1.626387e-02 
    57.5                5.982967e-03 5.109830e-03 6.485111e-03 1.725586e-03 8.792914e-03 6.510754e-06 5.394351e-04 1.822372e-03 1.655379e-03 1.370408e-02 1.573787e-02 1.517855e-02 
    58.5                5.501660e-03 4.900082e-03 6.112603e-03 1.483637e-03 8.200761e-03 5.923648e-06 4.647433e-04 1.685084e-03 1.531297e-03 1.267775e-02 1.471708e-02 1.415928e-02 
    59.5                5.199333e-03 4.671318e-03 5.862374e-03 1.281753e-03 7.773245e-03 5.468424e-06 4.034505e-04 1.548589e-03 1.404143e-03 1.193367e-02 1.396044e-02 1.339961e-02 
    60.5                5.017796e-03 4.243819e-03 5.495973e-03 1.123153e-03 7.237098e-03 5.063245e-06 3.549571e-04 1.384561e-03 1.252014e-03 1.103639e-02 1.305870e-02 1.251524e-02 
    61.5                4.547093e-03 3.696067e-03 5.002377e-03 8.933578e-04 6.505967e-03 4.369520e-06 2.837706e-04 1.213229e-03 1.095352e-03 9.814300e-03 1.167785e-02 1.115438e-02 
    62.5                4.195829e-03 3.028308e-03 4.290220e-03 7.277618e-04 5.552481e-03 3.779357e-06 2.322231e-04 1.034097e-03 9.354454e-04 8.327547e-03 1.011443e-02 9.661177e-03 
    63.5                3.427351e-03 2.466698e-03 3.521312e-03 5.371843e-04 4.519295e-03 3.041338e-06 1.727585e-04 8.491814e-04 7.700140e-04 6.732485e-03 8.246839e-03 7.863578e-03 
    64.5                2.822759e-03 1.974525e-03 2.863762e-03 4.147404e-04 3.659668e-03 2.474273e-06 1.338300e-04 6.730241e-04 6.100372e-04 5.427486e-03 6.699569e-03 6.383591e-03 
    65.5                2.242825e-03 1.506978e-03 2.267985e-03 2.951492e-04 2.877167e-03 1.900476e-06 9.624884e-05 5.084603e-04 4.596550e-04 4.233471e-03 5.249550e-03 4.992204e-03 
    66.5                1.797531e-03 1.070729e-03 1.725800e-03 2.053629e-04 2.176350e-03 1.424201e-06 6.753053e-05 3.651402e-04 3.287993e-04 3.180357e-03 3.996226e-03 3.797435e-03 
    67.5                1.319391e-03 6.849152e-04 1.196075e-03 1.292294e-04 1.499889e-03 9.883135e-07 4.299578e-05 2.379672e-04 2.134369e-04 2.174564e-03 2.777663e-03 2.637482e-03 
    68.5                8.871249e-04 3.838324e-04 7.576840e-04 7.174069e-05 9.432748e-04 6.246269e-07 2.425036e-05 1.374703e-04 1.222698e-04 1.353990e-03 1.755705e-03 1.665148e-03 
    69.5                5.430398e-04 1.693742e-04 4.154229e-04 3.466956e-05 5.141142e-04 3.451249e-07 1.198661e-05 6.730645e-05 5.919383e-05 7.308237e-04 9.723686e-04 9.223080e-04 
    70.5                2.721641e-04 4.314588e-05 1.754714e-04 1.313208e-05 2.160279e-04 1.587155e-07 4.654712e-06 2.565625e-05 2.232796e-05 3.042123e-04 4.222128e-04 4.010740e-04 
    71.5                9.864348e-05 5.666031e-06 4.739469e-05 3.701874e-06 5.832641e-05 5.749892e-08 1.385144e-06 6.512298e-06 5.647024e-06 8.191685e-05 1.300471e-04 1.247882e-04 
    72.5                1.728088e-05 1.184735e-07 6.518767e-06 4.567079e-07 7.966255e-06 1.102002e-08 1.895099e-07 9.144909e-07 8.020202e-07 1.108288e-05 2.052642e-05 1.985465e-05 
    73.5                1.327765e-06 0.000000e+00 3.237679e-07 1.376891e-08 3.889531e-07 1.012775e-09 8.750484e-09 3.899238e-08 3.362460e-08 5.303488e-07 1.421491e-06 1.397560e-06 
    74.5                0.000000e+00 0.000000e+00 0.000000e+00 0.000000e+00 0.000000e+00 0.000000e+00 0.000000e+00 0.000000e+00 0.000000e+00 0.000000e+00 0.000000e+00 0.000000e+00 
    75.5                0.000000e+00 0.000000e+00 0.000000e+00 0.000000e+00 0.000000e+00 0.000000e+00 0.000000e+00 0.000000e+00 0.000000e+00 0.000000e+00 0.000000e+00 0.000000e+00 
    76.5                0.000000e+00 0.000000e+00 0.000000e+00 0.000000e+00 0.000000e+00 0.000000e+00 0.000000e+00 0.000000e+00 0.000000e+00 0.000000e+00 0.000000e+00 0.000000e+00 
    77.5                0.000000e+00 0.000000e+00 0.000000e+00 0.000000e+00 0.000000e+00 0.000000e+00 0.000000e+00 0.000000e+00 0.000000e+00 0.000000e+00 0.000000e+00 0.000000e+00 
    78.5                0.000000e+00 0.000000e+00 0.000000e+00 0.000000e+00 0.000000e+00 0.000000e+00 0.000000e+00 0.000000e+00 0.000000e+00 0.000000e+00 0.000000e+00 0.000000e+00 
    79.5                0.000000e+00 0.000000e+00 0.000000e+00 0.000000e+00 0.000000e+00 0.000000e+00 0.000000e+00 0.000000e+00 0.000000e+00 0.000000e+00 0.000000e+00 0.000000e+00 


