# 80 rows of flux data
# 12 columns of flux data
# 
# total cross-sectional flux  1.057105e+00 /m^2/yr
#
#                             +x ram      -x wake      +y port -y starboard    +z zenith     -z nadir        Earth          Sun     anti-Sun      rot (x)      rot (y)      rot (z) 
# average speed (km/s)         36.75        38.02        30.29        33.48        26.47        37.66        37.73        27.60        28.07        33.57        37.31        33.64 
# total flux (#/m2/yr)  2.622400e-01 2.201361e-01 4.161613e-01 2.411559e-01 1.641948e-02 4.528710e-01 4.537032e-01 1.647895e-01 1.758417e-01 8.735230e-01 7.482997e-01 8.821629e-01 
# velocity (km/s)
     0.5                0.000000e+00 0.000000e+00 0.000000e+00 0.000000e+00 0.000000e+00 0.000000e+00 0.000000e+00 0.000000e+00 0.000000e+00 0.000000e+00 0.000000e+00 0.000000e+00 
     1.5                0.000000e+00 0.000000e+00 0.000000e+00 0.000000e+00 0.000000e+00 0.000000e+00 0.000000e+00 0.000000e+00 0.000000e+00 0.000000e+00 0.000000e+00 0.000000e+00 
     2.5                2.594895e-05 1.187539e-04 9.265329e-05 5.155912e-05 3.953344e-06 1.530942e-04 1.528963e-04 7.189744e-05 8.176901e-05 2.386480e-04 2.390225e-04 2.273350e-04 
     3.5                3.215308e-04 4.728562e-04 4.318523e-04 2.626432e-04 1.633519e-05 8.075952e-04 8.066684e-04 3.902785e-04 4.326930e-04 1.190612e-03 1.275732e-03 1.167025e-03 
     4.5                9.240441e-04 8.488198e-04 9.862696e-04 6.289120e-04 3.560125e-05 1.738705e-03 1.736016e-03 9.164086e-04 9.680621e-04 2.647879e-03 2.792830e-03 2.653242e-03 
     5.5                1.603942e-03 1.272573e-03 1.707924e-03 1.095187e-03 6.266462e-05 2.754666e-03 2.748581e-03 1.551892e-03 1.617832e-03 4.383793e-03 4.479756e-03 4.435363e-03 
     6.5                2.303895e-03 1.657935e-03 2.667609e-03 1.626919e-03 1.012658e-04 3.757721e-03 3.747608e-03 2.212954e-03 2.271392e-03 6.371416e-03 6.151104e-03 6.454318e-03 
     7.5                2.899117e-03 2.039675e-03 3.718453e-03 2.191206e-03 1.512389e-04 4.659481e-03 4.645462e-03 2.815708e-03 2.883181e-03 8.386953e-03 7.666744e-03 8.495644e-03 
     8.5                3.442664e-03 2.386959e-03 4.771466e-03 2.690013e-03 1.983869e-04 5.448898e-03 5.430855e-03 3.381907e-03 3.430319e-03 1.027988e-02 9.024665e-03 1.041718e-02 
     9.5                3.875565e-03 2.658209e-03 5.796634e-03 3.178338e-03 2.498350e-04 6.120672e-03 6.098529e-03 3.861878e-03 3.928408e-03 1.205547e-02 1.014534e-02 1.218181e-02 
    10.5                4.226687e-03 2.970985e-03 6.827950e-03 3.630965e-03 3.008971e-04 6.692151e-03 6.665878e-03 4.302323e-03 4.405998e-03 1.373119e-02 1.115467e-02 1.388906e-02 
    11.5                4.615573e-03 3.211791e-03 8.106373e-03 4.104454e-03 3.693930e-04 7.260327e-03 7.229622e-03 4.756544e-03 4.895862e-03 1.566701e-02 1.214845e-02 1.580695e-02 
    12.5                4.897373e-03 3.395436e-03 8.988993e-03 4.522792e-03 4.090202e-04 7.676540e-03 7.642466e-03 5.070591e-03 5.241679e-03 1.706227e-02 1.287174e-02 1.721646e-02 
    13.5                5.076064e-03 3.431143e-03 9.938557e-03 4.717775e-03 4.623021e-04 7.794833e-03 7.759586e-03 5.207194e-03 5.387442e-03 1.819175e-02 1.317307e-02 1.835910e-02 
    14.5                4.971425e-03 3.568457e-03 1.048591e-02 4.842245e-03 5.029900e-04 7.822853e-03 7.786161e-03 5.258178e-03 5.452743e-03 1.882162e-02 1.325103e-02 1.896928e-02 
    15.5                5.145691e-03 3.631629e-03 1.142221e-02 5.152205e-03 5.589323e-04 8.019697e-03 7.982551e-03 5.370879e-03 5.586178e-03 2.005504e-02 1.363480e-02 2.019574e-02 
    16.5                5.101176e-03 3.685538e-03 1.169641e-02 5.192344e-03 5.774627e-04 7.988841e-03 7.951180e-03 5.383537e-03 5.601193e-03 2.031433e-02 1.363248e-02 2.045673e-02 
    17.5                5.118269e-03 3.698669e-03 1.205679e-02 5.288968e-03 5.928602e-04 8.014926e-03 7.978266e-03 5.340204e-03 5.572350e-03 2.072354e-02 1.368707e-02 2.085890e-02 
    18.5                5.083591e-03 3.767113e-03 1.244359e-02 5.429566e-03 6.190082e-04 8.031470e-03 7.995961e-03 5.298897e-03 5.542968e-03 2.118908e-02 1.374631e-02 2.132539e-02 
    19.5                5.047491e-03 3.750293e-03 1.247419e-02 5.539827e-03 6.203271e-04 8.033863e-03 8.000639e-03 5.177009e-03 5.434240e-03 2.127460e-02 1.370862e-02 2.136727e-02 
    20.5                4.970153e-03 3.697353e-03 1.228905e-02 5.520467e-03 6.100841e-04 7.837623e-03 7.806927e-03 4.989744e-03 5.245431e-03 2.092539e-02 1.344043e-02 2.107162e-02 
    21.5                4.817399e-03 3.748056e-03 1.241463e-02 5.515931e-03 6.186741e-04 7.772385e-03 7.744424e-03 4.842858e-03 5.100551e-03 2.097545e-02 1.331875e-02 2.108310e-02 
    22.5                4.885598e-03 3.672534e-03 1.255925e-02 5.656606e-03 6.207841e-04 7.807006e-03 7.782151e-03 4.712411e-03 4.982526e-03 2.120912e-02 1.334037e-02 2.130095e-02 
    23.5                4.662811e-03 3.523697e-03 1.186303e-02 5.399752e-03 5.908487e-04 7.380212e-03 7.358270e-03 4.414289e-03 4.664599e-03 2.006794e-02 1.269070e-02 2.019793e-02 
    24.5                4.391570e-03 3.440846e-03 1.127554e-02 5.258414e-03 5.535113e-04 7.113734e-03 7.094367e-03 4.144092e-03 4.389029e-03 1.920434e-02 1.217028e-02 1.930406e-02 
    25.5                4.298241e-03 3.350351e-03 1.095481e-02 5.189506e-03 5.318925e-04 6.924750e-03 6.908583e-03 3.913191e-03 4.155110e-03 1.870825e-02 1.185969e-02 1.881587e-02 
    26.5                4.111652e-03 3.323219e-03 1.044284e-02 5.101386e-03 4.996236e-04 6.784361e-03 6.771380e-03 3.699529e-03 3.938895e-03 1.803812e-02 1.155861e-02 1.812305e-02 
    27.5                4.045866e-03 3.188792e-03 9.894769e-03 5.017167e-03 4.614870e-04 6.615635e-03 6.605745e-03 3.490603e-03 3.724405e-03 1.730787e-02 1.123905e-02 1.739675e-02 
    28.5                3.859203e-03 3.119356e-03 9.393810e-03 4.859641e-03 4.296094e-04 6.372197e-03 6.365900e-03 3.227513e-03 3.453100e-03 1.652944e-02 1.082167e-02 1.662936e-02 
    29.5                3.714909e-03 2.893836e-03 8.852811e-03 4.641331e-03 4.028711e-04 6.049059e-03 6.046221e-03 2.920553e-03 3.134875e-03 1.563158e-02 1.025333e-02 1.571765e-02 
    30.5                3.442934e-03 2.822362e-03 8.450945e-03 4.424979e-03 3.885610e-04 5.701876e-03 5.700851e-03 2.705660e-03 2.905607e-03 1.486163e-02 9.702414e-03 1.495350e-02 
    31.5                3.327115e-03 2.808739e-03 8.050595e-03 4.396843e-03 3.519254e-04 5.642214e-03 5.643958e-03 2.536464e-03 2.735456e-03 1.438211e-02 9.525605e-03 1.446309e-02 
    32.5                3.238396e-03 2.695720e-03 7.484938e-03 4.191460e-03 3.183650e-04 5.444137e-03 5.448530e-03 2.324878e-03 2.512968e-03 1.355164e-02 9.185924e-03 1.363526e-02 
    33.5                3.134987e-03 2.758919e-03 7.109055e-03 4.140387e-03 2.861847e-04 5.436764e-03 5.444650e-03 2.139332e-03 2.327346e-03 1.312556e-02 9.121935e-03 1.320933e-02 
    34.5                3.193691e-03 2.756485e-03 7.097432e-03 4.220066e-03 2.782113e-04 5.524440e-03 5.535150e-03 2.050331e-03 2.240196e-03 1.320109e-02 9.227511e-03 1.328133e-02 
    35.5                3.074998e-03 2.656150e-03 6.455448e-03 3.947775e-03 2.422658e-04 5.314968e-03 5.326314e-03 1.915223e-03 2.090783e-03 1.224516e-02 8.866921e-03 1.233086e-02 
    36.5                2.968358e-03 2.715169e-03 6.240486e-03 3.895693e-03 2.271753e-04 5.319874e-03 5.333660e-03 1.783414e-03 1.956761e-03 1.199277e-02 8.823743e-03 1.205822e-02 
    37.5                3.097975e-03 2.789823e-03 6.273125e-03 3.963944e-03 2.244393e-04 5.456889e-03 5.473813e-03 1.724945e-03 1.898910e-03 1.214869e-02 9.093234e-03 1.226363e-02 
    38.5                3.005803e-03 2.991664e-03 6.061852e-03 3.921205e-03 2.076765e-04 5.609520e-03 5.629207e-03 1.650838e-03 1.824779e-03 1.200796e-02 9.280124e-03 1.209290e-02 
    39.5                3.234138e-03 2.880288e-03 5.950125e-03 3.940831e-03 1.946667e-04 5.795846e-03 5.817919e-03 1.597318e-03 1.771976e-03 1.202425e-02 9.508639e-03 1.208130e-02 
    40.5                3.178042e-03 2.966180e-03 5.803544e-03 3.882609e-03 1.858549e-04 5.746147e-03 5.769001e-03 1.530525e-03 1.699397e-03 1.180226e-02 9.495998e-03 1.192713e-02 
    41.5                3.212459e-03 3.268520e-03 5.762856e-03 3.943855e-03 1.765320e-04 6.112763e-03 6.139119e-03 1.507423e-03 1.681080e-03 1.204706e-02 1.003669e-02 1.214768e-02 
    42.5                3.492487e-03 3.167533e-03 5.548860e-03 3.890077e-03 1.615358e-04 6.355873e-03 6.384305e-03 1.498924e-03 1.672162e-03 1.197665e-02 1.036177e-02 1.204866e-02 
    43.5                3.393044e-03 3.352586e-03 5.259260e-03 3.726883e-03 1.501131e-04 6.295317e-03 6.325196e-03 1.453690e-03 1.618989e-03 1.156733e-02 1.037224e-02 1.174074e-02 
    44.5                3.545215e-03 3.683203e-03 5.426997e-03 3.925918e-03 1.476603e-04 6.905251e-03 6.938805e-03 1.494522e-03 1.671360e-03 1.226110e-02 1.123355e-02 1.235144e-02 
    45.5                3.909092e-03 3.661654e-03 5.419901e-03 3.964291e-03 1.437560e-04 7.152082e-03 7.188728e-03 1.497712e-03 1.674227e-03 1.243747e-02 1.169042e-02 1.260791e-02 
    46.5                3.823661e-03 3.746999e-03 5.236089e-03 3.882178e-03 1.343083e-04 7.220371e-03 7.258108e-03 1.462289e-03 1.635622e-03 1.227588e-02 1.174025e-02 1.241100e-02 
    47.5                3.971100e-03 3.997934e-03 5.170208e-03 3.876255e-03 1.292313e-04 7.546109e-03 7.586243e-03 1.482158e-03 1.657106e-03 1.247445e-02 1.230790e-02 1.266330e-02 
    48.5                4.061960e-03 4.379365e-03 5.112337e-03 3.882342e-03 1.237913e-04 8.091240e-03 8.134612e-03 1.526944e-03 1.707658e-03 1.284898e-02 1.310615e-02 1.297264e-02 
    49.5                4.489858e-03 4.809840e-03 5.242240e-03 4.041593e-03 1.219218e-04 8.792476e-03 8.842449e-03 1.582255e-03 1.772662e-03 1.358042e-02 1.432804e-02 1.383948e-02 
    50.5                4.782517e-03 5.509968e-03 5.384881e-03 4.233497e-03 1.187862e-04 9.821005e-03 9.877042e-03 1.659095e-03 1.865075e-03 1.460467e-02 1.592071e-02 1.485449e-02 
    51.5                5.459846e-03 6.063886e-03 5.508124e-03 4.406997e-03 1.149671e-04 1.118461e-02 1.124893e-02 1.734020e-03 1.959757e-03 1.590753e-02 1.796643e-02 1.604620e-02 
    52.5                6.144691e-03 6.059955e-03 5.356195e-03 4.344097e-03 1.074700e-04 1.181132e-02 1.188241e-02 1.779039e-03 2.009118e-03 1.627857e-02 1.898600e-02 1.646604e-02 
    53.5                6.266743e-03 6.140464e-03 5.085622e-03 4.171754e-03 9.856135e-05 1.197785e-02 1.205143e-02 1.797316e-03 2.023362e-03 1.612241e-02 1.927285e-02 1.635257e-02 
    54.5                6.377866e-03 5.781497e-03 4.788291e-03 3.963130e-03 9.019207e-05 1.184308e-02 1.191553e-02 1.782444e-03 1.999575e-03 1.566466e-02 1.897404e-02 1.581088e-02 
    55.5                6.302882e-03 5.835573e-03 4.556212e-03 3.787795e-03 8.489155e-05 1.157479e-02 1.164691e-02 1.759339e-03 1.966185e-03 1.517018e-02 1.873048e-02 1.552067e-02 
    56.5                6.165156e-03 5.559869e-03 4.306696e-03 3.616329e-03 7.689407e-05 1.136800e-02 1.143830e-02 1.719675e-03 1.918105e-03 1.470470e-02 1.823786e-02 1.491288e-02 
    57.5                5.934086e-03 5.074669e-03 3.897459e-03 3.286959e-03 6.909338e-05 1.060085e-02 1.066704e-02 1.637304e-03 1.817043e-03 1.358131e-02 1.707646e-02 1.383617e-02 
    58.5                5.454698e-03 4.865705e-03 3.509743e-03 2.978917e-03 6.071787e-05 9.939268e-03 1.000220e-02 1.515553e-03 1.679993e-03 1.256807e-02 1.599917e-02 1.280482e-02 
    59.5                5.158135e-03 4.639793e-03 3.218036e-03 2.759730e-03 5.331973e-05 9.484629e-03 9.544451e-03 1.390463e-03 1.544008e-03 1.183995e-02 1.522005e-02 1.204314e-02 
    60.5                4.980284e-03 4.223371e-03 2.905045e-03 2.501758e-03 4.755118e-05 8.874795e-03 8.931940e-03 1.240475e-03 1.380605e-03 1.096576e-02 1.427135e-02 1.117834e-02 
    61.5                4.508567e-03 3.675614e-03 2.470870e-03 2.149132e-03 3.870904e-05 8.028510e-03 8.079506e-03 1.085919e-03 1.209324e-03 9.751415e-03 1.280411e-02 9.837853e-03 
    62.5                4.161432e-03 3.005099e-03 2.041632e-03 1.780549e-03 3.214658e-05 6.862670e-03 6.908333e-03 9.277820e-04 1.030436e-03 8.267868e-03 1.107066e-02 8.471840e-03 
    63.5                3.398160e-03 2.455985e-03 1.604834e-03 1.411267e-03 2.432534e-05 5.620434e-03 5.657895e-03 7.642327e-04 8.465293e-04 6.696446e-03 9.054842e-03 6.868266e-03 
    64.5                2.797872e-03 1.964435e-03 1.266766e-03 1.117093e-03 1.912012e-05 4.558029e-03 4.588779e-03 6.054468e-04 6.706295e-04 5.395155e-03 7.356192e-03 5.542902e-03 
    65.5                2.223131e-03 1.497471e-03 9.504973e-04 8.443511e-04 1.383355e-05 3.597253e-03 3.621760e-03 4.563357e-04 5.066143e-04 4.208177e-03 5.775383e-03 4.294626e-03 
    66.5                1.784061e-03 1.065160e-03 6.887567e-04 6.152463e-04 9.890846e-06 2.733535e-03 2.752727e-03 3.265115e-04 3.638028e-04 3.166029e-03 4.404072e-03 3.250652e-03 
    67.5                1.308329e-03 6.818292e-04 4.508118e-04 4.047185e-04 6.400344e-06 1.889151e-03 1.902891e-03 2.119763e-04 2.370677e-04 2.164511e-03 3.060954e-03 2.242338e-03 
    68.5                8.783555e-04 3.832123e-04 2.636008e-04 2.382509e-04 3.690094e-06 1.193267e-03 1.202244e-03 1.214227e-04 1.368611e-04 1.348297e-03 1.937170e-03 1.401469e-03 
    69.5                5.369975e-04 1.693360e-04 1.322830e-04 1.203222e-04 1.860961e-06 6.518668e-04 6.572369e-04 5.873274e-05 6.695423e-05 7.273155e-04 1.070722e-03 7.709636e-04 
    70.5                2.686663e-04 4.335498e-05 5.022561e-05 4.589330e-05 7.516680e-07 2.745438e-04 2.769731e-04 2.211238e-05 2.546102e-05 3.025942e-04 4.629322e-04 3.339447e-04 
    71.5                9.671759e-05 5.744618e-06 1.259511e-05 1.145752e-05 2.315567e-07 7.358373e-05 7.443566e-05 5.558926e-06 6.425243e-06 8.093446e-05 1.390666e-04 1.066864e-04 
    72.5                1.681821e-05 1.250027e-07 1.451333e-06 1.327332e-06 3.367765e-08 1.005664e-05 1.021321e-05 7.799756e-07 8.937715e-07 1.092665e-05 2.146705e-05 1.728438e-05 
    73.5                1.279721e-06 0.000000e+00 5.623446e-08 5.461843e-08 1.936744e-09 4.824790e-07 4.952543e-07 3.182587e-08 3.707413e-08 5.153839e-07 1.418758e-06 1.286846e-06 
    74.5                0.000000e+00 0.000000e+00 0.000000e+00 0.000000e+00 0.000000e+00 0.000000e+00 0.000000e+00 0.000000e+00 0.000000e+00 0.000000e+00 0.000000e+00 0.000000e+00 
    75.5                0.000000e+00 0.000000e+00 0.000000e+00 0.000000e+00 0.000000e+00 0.000000e+00 0.000000e+00 0.000000e+00 0.000000e+00 0.000000e+00 0.000000e+00 0.000000e+00 
    76.5                0.000000e+00 0.000000e+00 0.000000e+00 0.000000e+00 0.000000e+00 0.000000e+00 0.000000e+00 0.000000e+00 0.000000e+00 0.000000e+00 0.000000e+00 0.000000e+00 
    77.5                0.000000e+00 0.000000e+00 0.000000e+00 0.000000e+00 0.000000e+00 0.000000e+00 0.000000e+00 0.000000e+00 0.000000e+00 0.000000e+00 0.000000e+00 0.000000e+00 
    78.5                0.000000e+00 0.000000e+00 0.000000e+00 0.000000e+00 0.000000e+00 0.000000e+00 0.000000e+00 0.000000e+00 0.000000e+00 0.000000e+00 0.000000e+00 0.000000e+00 
    79.5                0.000000e+00 0.000000e+00 0.000000e+00 0.000000e+00 0.000000e+00 0.000000e+00 0.000000e+00 0.000000e+00 0.000000e+00 0.000000e+00 0.000000e+00 0.000000e+00 


