# 80 rows of flux data
# 12 columns of flux data
# 
# total cross-sectional flux  2.153502e+00 /m^2/yr
#
#                             +x ram      -x wake      +y port -y starboard    +z zenith     -z nadir        Earth          Sun     anti-Sun      rot (x)      rot (y)      rot (z) 
# average speed (km/s)         24.67        23.83        20.19        20.19        24.27        23.69        23.97        24.68        24.68        23.64        24.28        23.68 
# total flux (#/m2/yr)  7.162882e-01 6.110164e-01 2.155580e-01 2.155677e-01 1.288534e+00 4.919505e-04 4.568666e-03 9.477132e-01 9.342057e-01 1.444729e+00 2.062139e+00 1.476857e+00 
# velocity (km/s)
     0.5                0.000000e+00 0.000000e+00 0.000000e+00 0.000000e+00 0.000000e+00 0.000000e+00 0.000000e+00 0.000000e+00 0.000000e+00 0.000000e+00 0.000000e+00 0.000000e+00 
     1.5                0.000000e+00 0.000000e+00 0.000000e+00 0.000000e+00 0.000000e+00 0.000000e+00 0.000000e+00 0.000000e+00 0.000000e+00 0.000000e+00 0.000000e+00 0.000000e+00 
     2.5                0.000000e+00 5.060770e-06 3.474096e-07 3.481630e-07 2.441040e-06 1.368447e-09 1.193296e-08 2.162962e-06 1.276414e-07 2.722463e-06 5.858834e-06 5.173249e-06 
     3.5                3.142995e-06 1.175780e-04 2.113641e-05 2.115643e-05 1.036668e-04 4.216868e-08 3.481854e-07 5.817977e-05 2.085716e-05 1.214733e-04 1.771900e-04 1.336971e-04 
     4.5                1.191215e-04 5.407757e-04 1.487114e-04 1.489195e-04 6.094549e-04 2.500853e-07 1.887684e-06 2.963145e-04 1.669856e-04 7.354038e-04 1.000625e-03 7.691857e-04 
     5.5                5.660507e-04 1.468519e-03 5.629507e-04 5.628606e-04 2.055498e-03 7.687272e-07 5.976388e-06 9.664523e-04 7.111253e-04 2.538832e-03 3.227505e-03 2.501697e-03 
     6.5                1.897406e-03 2.756857e-03 1.325295e-03 1.325419e-03 4.596475e-03 1.818204e-06 1.384408e-05 2.182526e-03 1.833007e-03 5.740037e-03 7.294100e-03 5.772281e-03 
     7.5                3.550408e-03 4.896574e-03 2.490047e-03 2.490395e-03 8.190785e-03 3.426114e-06 2.641181e-05 3.956248e-03 3.628031e-03 1.040949e-02 1.311794e-02 1.059202e-02 
     8.5                6.010842e-03 7.284053e-03 3.933341e-03 3.934806e-03 1.315070e-02 5.351293e-06 4.165653e-05 6.344839e-03 6.202861e-03 1.661147e-02 2.084872e-02 1.665607e-02 
     9.5                9.185053e-03 9.279664e-03 5.572724e-03 5.573787e-03 1.834925e-02 7.486002e-06 5.939938e-05 9.281194e-03 9.283909e-03 2.327421e-02 2.902770e-02 2.330244e-02 
    10.5                1.242849e-02 1.128896e-02 7.293106e-03 7.293796e-03 2.292999e-02 9.936861e-06 8.026935e-05 1.271400e-02 1.269244e-02 2.953646e-02 3.678167e-02 3.014001e-02 
    11.5                1.467298e-02 1.295566e-02 8.701788e-03 8.702661e-03 2.700173e-02 1.173202e-05 9.734171e-05 1.612394e-02 1.603276e-02 3.501811e-02 4.308083e-02 3.548364e-02 
    12.5                1.685042e-02 1.421626e-02 9.622931e-03 9.623329e-03 2.997100e-02 1.347824e-05 1.146030e-04 1.916982e-02 1.904401e-02 3.895466e-02 4.813775e-02 3.973669e-02 
    13.5                1.812784e-02 1.613996e-02 1.028834e-02 1.028903e-02 3.295234e-02 1.475580e-05 1.281451e-04 2.212014e-02 2.195767e-02 4.251624e-02 5.299723e-02 4.349366e-02 
    14.5                1.977442e-02 1.781045e-02 1.072230e-02 1.072284e-02 3.644086e-02 1.592016e-05 1.409956e-04 2.525585e-02 2.503596e-02 4.617853e-02 5.836875e-02 4.700375e-02 
    15.5                2.148208e-02 1.935089e-02 1.084943e-02 1.085023e-02 3.963778e-02 1.703837e-05 1.531972e-04 2.823647e-02 2.796906e-02 4.919121e-02 6.345633e-02 5.004116e-02 
    16.5                2.330659e-02 2.073258e-02 1.092726e-02 1.092897e-02 4.270070e-02 1.785330e-05 1.629400e-04 3.104279e-02 3.072688e-02 5.201278e-02 6.838377e-02 5.303102e-02 
    17.5                2.463679e-02 2.206781e-02 1.077371e-02 1.077499e-02 4.522934e-02 1.858509e-05 1.717008e-04 3.355260e-02 3.319411e-02 5.408127e-02 7.248110e-02 5.519600e-02 
    18.5                2.583968e-02 2.303639e-02 1.047853e-02 1.047927e-02 4.752617e-02 1.900891e-05 1.777398e-04 3.576175e-02 3.537404e-02 5.575062e-02 7.600398e-02 5.677599e-02 
    19.5                2.700084e-02 2.376049e-02 1.022935e-02 1.023007e-02 4.924870e-02 1.946996e-05 1.836217e-04 3.754347e-02 3.712667e-02 5.700160e-02 7.884399e-02 5.820736e-02 
    20.5                2.760747e-02 2.442069e-02 9.800787e-03 9.802270e-03 5.040347e-02 1.969001e-05 1.871253e-04 3.878116e-02 3.833724e-02 5.757376e-02 8.075241e-02 5.887768e-02 
    21.5                2.805609e-02 2.542122e-02 9.369241e-03 9.370133e-03 5.187329e-02 1.984624e-05 1.899601e-04 4.013569e-02 3.964892e-02 5.840316e-02 8.304990e-02 5.969318e-02 
    22.5                2.894229e-02 2.604049e-02 9.127566e-03 9.128845e-03 5.353546e-02 2.024272e-05 1.942831e-04 4.153467e-02 4.101004e-02 5.968304e-02 8.554627e-02 6.086090e-02 
    23.5                2.970413e-02 2.627744e-02 8.673839e-03 8.674737e-03 5.440222e-02 2.026333e-05 1.951155e-04 4.233833e-02 4.178347e-02 5.994718e-02 8.701208e-02 6.125967e-02 
    24.5                2.986519e-02 2.640647e-02 8.166943e-03 8.167840e-03 5.466116e-02 2.013367e-05 1.943142e-04 4.258729e-02 4.200448e-02 5.965624e-02 8.744612e-02 6.100400e-02 
    25.5                2.991230e-02 2.628482e-02 7.591462e-03 7.592047e-03 5.465985e-02 1.990815e-05 1.922468e-04 4.253569e-02 4.192932e-02 5.907219e-02 8.738518e-02 6.037617e-02 
    26.5                2.977711e-02 2.562132e-02 6.990595e-03 6.990983e-03 5.391565e-02 1.946697e-05 1.881488e-04 4.190456e-02 4.129086e-02 5.780788e-02 8.617039e-02 5.906116e-02 
    27.5                2.916055e-02 2.497006e-02 6.374476e-03 6.374871e-03 5.250341e-02 1.894931e-05 1.830599e-04 4.079990e-02 4.018928e-02 5.589693e-02 8.405620e-02 5.731698e-02 
    28.5                2.822074e-02 2.412609e-02 5.783613e-03 5.783935e-03 5.092407e-02 1.819155e-05 1.754539e-04 3.940589e-02 3.879921e-02 5.387965e-02 8.140232e-02 5.510934e-02 
    29.5                2.734029e-02 2.300450e-02 5.195452e-03 5.195601e-03 4.894002e-02 1.743382e-05 1.678993e-04 3.775888e-02 3.716191e-02 5.146731e-02 7.825753e-02 5.270879e-02 
    30.5                2.608769e-02 2.175511e-02 4.599198e-03 4.599167e-03 4.649207e-02 1.651000e-05 1.587814e-04 3.573179e-02 3.515609e-02 4.862709e-02 7.435807e-02 4.982390e-02 
    31.5                2.469543e-02 2.029323e-02 3.990688e-03 3.990445e-03 4.372385e-02 1.546877e-05 1.482132e-04 3.343328e-02 3.288318e-02 4.547850e-02 6.992729e-02 4.660919e-02 
    32.5                2.309823e-02 1.860711e-02 3.412783e-03 3.412460e-03 4.055362e-02 1.428099e-05 1.363780e-04 3.080982e-02 3.029596e-02 4.198012e-02 6.484025e-02 4.301072e-02 
    33.5                2.131846e-02 1.671167e-02 2.887498e-03 2.886958e-03 3.693873e-02 1.300645e-05 1.236869e-04 2.788802e-02 2.741722e-02 3.808621e-02 5.909292e-02 3.907675e-02 
    34.5                1.925396e-02 1.481842e-02 2.400637e-03 2.400016e-03 3.306695e-02 1.164904e-05 1.104042e-04 2.479889e-02 2.437623e-02 3.397552e-02 5.292146e-02 3.489818e-02 
    35.5                1.715217e-02 1.293279e-02 1.943947e-03 1.943263e-03 2.916208e-02 1.029015e-05 9.697273e-05 2.171830e-02 2.134429e-02 2.986096e-02 4.670127e-02 3.071178e-02 
    36.5                1.502577e-02 1.110355e-02 1.530181e-03 1.529395e-03 2.533536e-02 8.914826e-06 8.342520e-05 1.870568e-02 1.838074e-02 2.585154e-02 4.056535e-02 2.658716e-02 
    37.5                1.298882e-02 9.329872e-03 1.180593e-03 1.179769e-03 2.162193e-02 7.591520e-06 7.062272e-05 1.582481e-02 1.555014e-02 2.199570e-02 3.463333e-02 2.264596e-02 
    38.5                1.099329e-02 7.582952e-03 8.850570e-04 8.842698e-04 1.800734e-02 6.304501e-06 5.836642e-05 1.305101e-02 1.282530e-02 1.826827e-02 2.883582e-02 1.880238e-02 
    39.5                9.082839e-03 5.894114e-03 6.376576e-04 6.368654e-04 1.448663e-02 5.096841e-06 4.688898e-05 1.040213e-02 1.022365e-02 1.466164e-02 2.322280e-02 1.512491e-02 
    40.5                7.198725e-03 4.356039e-03 4.362816e-04 4.354371e-04 1.113772e-02 3.933352e-06 3.615090e-05 7.924339e-03 7.791111e-03 1.124889e-02 1.788688e-02 1.164633e-02 
    41.5                5.446636e-03 3.073058e-03 2.822086e-04 2.814575e-04 8.157954e-03 2.929269e-06 2.662993e-05 5.759431e-03 5.664684e-03 8.224687e-03 1.314608e-02 8.572692e-03 
    42.5                3.912741e-03 2.051254e-03 1.721399e-04 1.715240e-04 5.696249e-03 2.045688e-06 1.852083e-05 3.981081e-03 3.917428e-03 5.734005e-03 9.191650e-03 5.992688e-03 
    43.5                2.690917e-03 1.228270e-03 9.838342e-05 9.787996e-05 3.726782e-03 1.350628e-06 1.211350e-05 2.579414e-03 2.540538e-03 3.746759e-03 6.027472e-03 3.933748e-03 
    44.5                1.708515e-03 6.386050e-04 5.093955e-05 5.054086e-05 2.191565e-03 8.157318e-07 7.340047e-06 1.512279e-03 1.492286e-03 2.201277e-03 3.577900e-03 2.353601e-03 
    45.5                9.540457e-04 2.646195e-04 2.293556e-05 2.266849e-05 1.109428e-03 4.332132e-07 3.909486e-06 7.663585e-04 7.578901e-04 1.113563e-03 1.835304e-03 1.221134e-03 
    46.5                4.455068e-04 7.758329e-05 8.614322e-06 8.458336e-06 4.484299e-04 1.947547e-07 1.772209e-06 3.159380e-04 3.137188e-04 4.499474e-04 7.660089e-04 5.238697e-04 
    47.5                1.536340e-04 1.514192e-05 2.468976e-06 2.404985e-06 1.318894e-04 6.699993e-08 6.197752e-07 9.662016e-05 9.660051e-05 1.323338e-04 2.373548e-04 1.689543e-04 
    48.5                3.713114e-05 1.355951e-06 5.017485e-07 4.831898e-07 2.657311e-05 1.685796e-08 1.497541e-07 2.064555e-05 2.079481e-05 2.666467e-05 5.138565e-05 3.851477e-05 
    49.5                5.167845e-06 1.187187e-08 6.039798e-08 5.744796e-08 2.868104e-06 2.356885e-09 2.211517e-08 2.522222e-06 2.571722e-06 2.880064e-06 6.353752e-06 5.181892e-06 
    50.5                1.504184e-07 0.000000e+00 1.566870e-09 1.470723e-09 5.509737e-08 1.057124e-10 8.143874e-10 6.489460e-08 6.676771e-08 5.549903e-08 1.648895e-07 1.504565e-07 
    51.5                0.000000e+00 0.000000e+00 0.000000e+00 0.000000e+00 0.000000e+00 0.000000e+00 0.000000e+00 0.000000e+00 0.000000e+00 0.000000e+00 0.000000e+00 0.000000e+00 
    52.5                0.000000e+00 0.000000e+00 0.000000e+00 0.000000e+00 0.000000e+00 0.000000e+00 0.000000e+00 0.000000e+00 0.000000e+00 0.000000e+00 0.000000e+00 0.000000e+00 
    53.5                0.000000e+00 0.000000e+00 0.000000e+00 0.000000e+00 0.000000e+00 0.000000e+00 0.000000e+00 0.000000e+00 0.000000e+00 0.000000e+00 0.000000e+00 0.000000e+00 
    54.5                0.000000e+00 0.000000e+00 0.000000e+00 0.000000e+00 0.000000e+00 0.000000e+00 0.000000e+00 0.000000e+00 0.000000e+00 0.000000e+00 0.000000e+00 0.000000e+00 
    55.5                0.000000e+00 0.000000e+00 0.000000e+00 0.000000e+00 0.000000e+00 0.000000e+00 0.000000e+00 0.000000e+00 0.000000e+00 0.000000e+00 0.000000e+00 0.000000e+00 
    56.5                0.000000e+00 0.000000e+00 0.000000e+00 0.000000e+00 0.000000e+00 0.000000e+00 0.000000e+00 0.000000e+00 0.000000e+00 0.000000e+00 0.000000e+00 0.000000e+00 
    57.5                0.000000e+00 0.000000e+00 0.000000e+00 0.000000e+00 0.000000e+00 0.000000e+00 0.000000e+00 0.000000e+00 0.000000e+00 0.000000e+00 0.000000e+00 0.000000e+00 
    58.5                0.000000e+00 0.000000e+00 0.000000e+00 0.000000e+00 0.000000e+00 0.000000e+00 0.000000e+00 0.000000e+00 0.000000e+00 0.000000e+00 0.000000e+00 0.000000e+00 
    59.5                0.000000e+00 0.000000e+00 0.000000e+00 0.000000e+00 0.000000e+00 0.000000e+00 0.000000e+00 0.000000e+00 0.000000e+00 0.000000e+00 0.000000e+00 0.000000e+00 
    60.5                0.000000e+00 0.000000e+00 0.000000e+00 0.000000e+00 0.000000e+00 0.000000e+00 0.000000e+00 0.000000e+00 0.000000e+00 0.000000e+00 0.000000e+00 0.000000e+00 
    61.5                0.000000e+00 0.000000e+00 0.000000e+00 0.000000e+00 0.000000e+00 0.000000e+00 0.000000e+00 0.000000e+00 0.000000e+00 0.000000e+00 0.000000e+00 0.000000e+00 
    62.5                0.000000e+00 0.000000e+00 0.000000e+00 0.000000e+00 0.000000e+00 0.000000e+00 0.000000e+00 0.000000e+00 0.000000e+00 0.000000e+00 0.000000e+00 0.000000e+00 
    63.5                0.000000e+00 0.000000e+00 0.000000e+00 0.000000e+00 0.000000e+00 0.000000e+00 0.000000e+00 0.000000e+00 0.000000e+00 0.000000e+00 0.000000e+00 0.000000e+00 
    64.5                0.000000e+00 0.000000e+00 0.000000e+00 0.000000e+00 0.000000e+00 0.000000e+00 0.000000e+00 0.000000e+00 0.000000e+00 0.000000e+00 0.000000e+00 0.000000e+00 
    65.5                0.000000e+00 0.000000e+00 0.000000e+00 0.000000e+00 0.000000e+00 0.000000e+00 0.000000e+00 0.000000e+00 0.000000e+00 0.000000e+00 0.000000e+00 0.000000e+00 
    66.5                0.000000e+00 0.000000e+00 0.000000e+00 0.000000e+00 0.000000e+00 0.000000e+00 0.000000e+00 0.000000e+00 0.000000e+00 0.000000e+00 0.000000e+00 0.000000e+00 
    67.5                0.000000e+00 0.000000e+00 0.000000e+00 0.000000e+00 0.000000e+00 0.000000e+00 0.000000e+00 0.000000e+00 0.000000e+00 0.000000e+00 0.000000e+00 0.000000e+00 
    68.5                0.000000e+00 0.000000e+00 0.000000e+00 0.000000e+00 0.000000e+00 0.000000e+00 0.000000e+00 0.000000e+00 0.000000e+00 0.000000e+00 0.000000e+00 0.000000e+00 
    69.5                0.000000e+00 0.000000e+00 0.000000e+00 0.000000e+00 0.000000e+00 0.000000e+00 0.000000e+00 0.000000e+00 0.000000e+00 0.000000e+00 0.000000e+00 0.000000e+00 
    70.5                0.000000e+00 0.000000e+00 0.000000e+00 0.000000e+00 0.000000e+00 0.000000e+00 0.000000e+00 0.000000e+00 0.000000e+00 0.000000e+00 0.000000e+00 0.000000e+00 
    71.5                0.000000e+00 0.000000e+00 0.000000e+00 0.000000e+00 0.000000e+00 0.000000e+00 0.000000e+00 0.000000e+00 0.000000e+00 0.000000e+00 0.000000e+00 0.000000e+00 
    72.5                0.000000e+00 0.000000e+00 0.000000e+00 0.000000e+00 0.000000e+00 0.000000e+00 0.000000e+00 0.000000e+00 0.000000e+00 0.000000e+00 0.000000e+00 0.000000e+00 
    73.5                0.000000e+00 0.000000e+00 0.000000e+00 0.000000e+00 0.000000e+00 0.000000e+00 0.000000e+00 0.000000e+00 0.000000e+00 0.000000e+00 0.000000e+00 0.000000e+00 
    74.5                0.000000e+00 0.000000e+00 0.000000e+00 0.000000e+00 0.000000e+00 0.000000e+00 0.000000e+00 0.000000e+00 0.000000e+00 0.000000e+00 0.000000e+00 0.000000e+00 
    75.5                0.000000e+00 0.000000e+00 0.000000e+00 0.000000e+00 0.000000e+00 0.000000e+00 0.000000e+00 0.000000e+00 0.000000e+00 0.000000e+00 0.000000e+00 0.000000e+00 
    76.5                0.000000e+00 0.000000e+00 0.000000e+00 0.000000e+00 0.000000e+00 0.000000e+00 0.000000e+00 0.000000e+00 0.000000e+00 0.000000e+00 0.000000e+00 0.000000e+00 
    77.5                0.000000e+00 0.000000e+00 0.000000e+00 0.000000e+00 0.000000e+00 0.000000e+00 0.000000e+00 0.000000e+00 0.000000e+00 0.000000e+00 0.000000e+00 0.000000e+00 
    78.5                0.000000e+00 0.000000e+00 0.000000e+00 0.000000e+00 0.000000e+00 0.000000e+00 0.000000e+00 0.000000e+00 0.000000e+00 0.000000e+00 0.000000e+00 0.000000e+00 
    79.5                0.000000e+00 0.000000e+00 0.000000e+00 0.000000e+00 0.000000e+00 0.000000e+00 0.000000e+00 0.000000e+00 0.000000e+00 0.000000e+00 0.000000e+00 0.000000e+00 


