# 80 rows of flux data
# 12 columns of flux data
# 
# total cross-sectional flux  1.038252e+00 /m^2/yr
#
#                             +x ram      -x wake      +y port -y starboard    +z zenith     -z nadir        Earth          Sun     anti-Sun      rot (x)      rot (y)      rot (z) 
# average speed (km/s)         38.32        37.03        34.38        41.30        31.71        46.36        38.44        27.95        28.07        34.02        34.15        37.23 
# total flux (#/m2/yr)  2.150121e-01 2.560190e-01 3.128541e-01 1.740197e-01 6.052455e-01 2.221250e-04 2.739583e-01 1.673421e-01 1.682906e-01 8.604846e-01 8.388961e-01 7.518099e-01 
# velocity (km/s)
     0.5                0.000000e+00 0.000000e+00 0.000000e+00 0.000000e+00 0.000000e+00 0.000000e+00 0.000000e+00 0.000000e+00 0.000000e+00 0.000000e+00 0.000000e+00 0.000000e+00 
     1.5                0.000000e+00 0.000000e+00 0.000000e+00 0.000000e+00 0.000000e+00 0.000000e+00 0.000000e+00 0.000000e+00 0.000000e+00 0.000000e+00 0.000000e+00 0.000000e+00 
     2.5                1.189255e-04 3.224227e-05 8.893618e-05 8.708744e-05 1.550221e-04 6.978729e-08 1.133968e-04 8.337195e-05 8.372388e-05 2.596329e-04 2.412644e-04 2.572742e-04 
     3.5                4.739031e-04 3.663410e-04 4.197069e-04 4.660193e-04 7.558776e-04 4.668065e-07 5.974785e-04 4.362422e-04 4.492961e-04 1.290927e-03 1.256131e-03 1.355939e-03 
     4.5                8.443574e-04 9.589272e-04 8.835614e-04 9.378140e-04 1.644328e-03 1.101075e-06 1.222955e-03 9.663119e-04 9.811357e-04 2.728429e-03 2.713408e-03 2.847815e-03 
     5.5                1.251505e-03 1.612705e-03 1.431540e-03 1.405530e-03 2.743649e-03 1.692336e-06 1.877148e-03 1.596153e-03 1.608565e-03 4.395875e-03 4.404838e-03 4.479193e-03 
     6.5                1.618895e-03 2.273793e-03 2.076940e-03 1.810085e-03 4.081189e-03 2.169421e-06 2.491670e-03 2.233878e-03 2.239308e-03 6.278926e-03 6.264047e-03 6.111083e-03 
     7.5                1.981612e-03 2.833644e-03 2.737469e-03 2.117575e-03 5.505339e-03 2.581492e-06 3.020165e-03 2.820189e-03 2.817155e-03 8.169461e-03 8.114367e-03 7.596801e-03 
     8.5                2.318619e-03 3.342455e-03 3.367795e-03 2.377256e-03 6.907802e-03 2.856567e-06 3.486053e-03 3.358983e-03 3.352267e-03 9.975338e-03 9.883652e-03 8.957637e-03 
     9.5                2.573839e-03 3.761807e-03 3.962053e-03 2.565726e-03 8.255867e-03 3.040610e-06 3.872160e-03 3.832920e-03 3.829708e-03 1.166269e-02 1.149071e-02 1.010096e-02 
    10.5                2.873985e-03 4.091310e-03 4.539351e-03 2.681769e-03 9.583311e-03 3.139585e-06 4.176136e-03 4.276580e-03 4.279102e-03 1.325757e-02 1.304401e-02 1.113967e-02 
    11.5                3.099111e-03 4.457187e-03 5.193154e-03 2.790965e-03 1.114536e-02 3.205033e-06 4.489205e-03 4.733313e-03 4.738443e-03 1.509789e-02 1.477220e-02 1.220047e-02 
    12.5                3.274248e-03 4.721448e-03 5.677102e-03 2.823024e-03 1.233034e-02 3.158031e-06 4.693509e-03 5.050781e-03 5.058011e-03 1.644229e-02 1.606401e-02 1.295296e-02 
    13.5                3.308326e-03 4.884403e-03 6.040778e-03 2.784130e-03 1.336511e-02 3.049492e-06 4.758176e-03 5.180260e-03 5.189107e-03 1.752209e-02 1.709220e-02 1.336495e-02 
    14.5                3.431839e-03 4.790547e-03 6.251473e-03 2.727839e-03 1.393758e-02 2.992825e-06 4.759727e-03 5.235693e-03 5.247131e-03 1.810218e-02 1.760862e-02 1.350737e-02 
    15.5                3.491418e-03 4.944618e-03 6.662768e-03 2.670317e-03 1.503717e-02 2.830413e-06 4.839879e-03 5.347705e-03 5.358288e-03 1.925843e-02 1.868454e-02 1.395297e-02 
    16.5                3.541735e-03 4.900918e-03 6.774771e-03 2.607103e-03 1.531842e-02 2.778782e-06 4.801638e-03 5.364385e-03 5.373986e-03 1.952091e-02 1.891802e-02 1.399410e-02 
    17.5                3.553793e-03 4.914744e-03 6.934030e-03 2.547821e-03 1.575255e-02 2.632210e-06 4.795139e-03 5.328921e-03 5.339205e-03 1.993929e-02 1.929499e-02 1.409535e-02 
    18.5                3.613274e-03 4.882912e-03 7.098699e-03 2.466438e-03 1.621503e-02 2.478203e-06 4.774313e-03 5.288634e-03 5.298935e-03 2.037295e-02 1.969336e-02 1.418178e-02 
    19.5                3.594347e-03 4.839391e-03 7.154197e-03 2.384412e-03 1.632691e-02 2.278456e-06 4.727580e-03 5.173877e-03 5.183859e-03 2.044154e-02 1.970258e-02 1.410791e-02 
    20.5                3.540229e-03 4.762253e-03 7.055114e-03 2.250712e-03 1.612998e-02 2.108579e-06 4.576227e-03 4.986844e-03 4.996253e-03 2.010075e-02 1.941195e-02 1.382092e-02 
    21.5                3.587540e-03 4.613769e-03 7.102086e-03 2.182253e-03 1.623724e-02 1.989112e-06 4.515172e-03 4.848042e-03 4.856538e-03 2.015971e-02 1.941255e-02 1.372440e-02 
    22.5                3.512871e-03 4.676855e-03 7.202510e-03 2.113947e-03 1.648995e-02 1.856869e-06 4.496688e-03 4.724952e-03 4.732669e-03 2.038512e-02 1.959812e-02 1.374395e-02 
    23.5                3.370591e-03 4.457530e-03 6.822064e-03 1.968198e-03 1.561268e-02 1.697763e-06 4.235607e-03 4.423870e-03 4.431323e-03 1.927515e-02 1.856554e-02 1.303830e-02 
    24.5                3.289117e-03 4.201550e-03 6.554891e-03 1.858581e-03 1.496643e-02 1.538611e-06 4.055796e-03 4.158710e-03 4.165719e-03 1.846276e-02 1.775383e-02 1.247634e-02 
    25.5                3.202652e-03 4.107520e-03 6.397127e-03 1.764914e-03 1.461990e-02 1.408995e-06 3.926617e-03 3.931552e-03 3.938251e-03 1.799494e-02 1.730632e-02 1.213550e-02 
    26.5                3.175392e-03 3.933782e-03 6.204754e-03 1.709208e-03 1.408050e-02 1.332285e-06 3.821395e-03 3.724774e-03 3.730957e-03 1.736563e-02 1.667651e-02 1.178205e-02 
    27.5                3.048094e-03 3.868675e-03 5.997386e-03 1.627052e-03 1.351663e-02 1.229558e-06 3.689113e-03 3.518539e-03 3.523922e-03 1.668406e-02 1.602104e-02 1.140312e-02 
    28.5                2.979593e-03 3.690697e-03 5.763354e-03 1.532645e-03 1.292572e-02 1.087216e-06 3.523453e-03 3.256735e-03 3.262026e-03 1.594628e-02 1.532020e-02 1.095264e-02 
    29.5                2.763247e-03 3.550355e-03 5.470384e-03 1.424678e-03 1.223396e-02 9.094103e-07 3.322086e-03 2.950391e-03 2.954640e-03 1.507560e-02 1.447251e-02 1.035659e-02 
    30.5                2.691117e-03 3.286990e-03 5.209058e-03 1.301286e-03 1.165710e-02 7.564475e-07 3.108844e-03 2.731428e-03 2.734839e-03 1.431583e-02 1.374589e-02 9.788610e-03 
    31.5                2.681791e-03 3.176939e-03 5.087754e-03 1.261330e-03 1.129471e-02 6.680681e-07 3.045091e-03 2.566311e-03 2.569528e-03 1.388786e-02 1.332304e-02 9.571977e-03 
    32.5                2.575508e-03 3.090167e-03 4.829956e-03 1.230120e-03 1.060838e-02 5.961504e-07 2.926933e-03 2.355371e-03 2.358386e-03 1.310180e-02 1.257744e-02 9.194163e-03 
    33.5                2.632464e-03 2.999134e-03 4.725509e-03 1.234192e-03 1.024933e-02 4.991874e-07 2.903643e-03 2.174667e-03 2.178136e-03 1.272111e-02 1.221935e-02 9.089172e-03 
    34.5                2.634117e-03 3.053117e-03 4.790374e-03 1.224664e-03 1.031310e-02 4.310144e-07 2.921154e-03 2.088922e-03 2.091080e-03 1.280339e-02 1.228973e-02 9.178767e-03 
    35.5                2.540763e-03 2.938502e-03 4.503514e-03 1.211047e-03 9.493660e-03 4.170592e-07 2.795828e-03 1.953071e-03 1.954749e-03 1.189979e-02 1.143603e-02 8.779832e-03 
    36.5                2.592777e-03 2.843423e-03 4.453003e-03 1.219892e-03 9.257138e-03 3.532563e-07 2.781993e-03 1.822842e-03 1.824632e-03 1.166615e-02 1.119575e-02 8.717081e-03 
    37.5                2.668970e-03 2.962944e-03 4.543059e-03 1.247160e-03 9.350257e-03 3.048207e-07 2.836427e-03 1.764981e-03 1.766149e-03 1.182146e-02 1.139381e-02 8.965489e-03 
    38.5                2.867155e-03 2.879748e-03 4.559821e-03 1.335557e-03 9.134151e-03 3.607585e-07 2.909481e-03 1.693475e-03 1.695076e-03 1.171515e-02 1.127104e-02 9.133322e-03 
    39.5                2.759162e-03 3.106096e-03 4.617554e-03 1.413057e-03 9.058467e-03 3.392894e-07 2.994903e-03 1.642882e-03 1.644028e-03 1.174237e-02 1.128166e-02 9.334466e-03 
    40.5                2.844290e-03 3.049080e-03 4.558225e-03 1.399722e-03 8.882135e-03 2.520675e-07 2.958794e-03 1.574839e-03 1.575965e-03 1.153603e-02 1.115034e-02 9.306261e-03 
    41.5                3.148388e-03 3.084829e-03 4.695367e-03 1.592243e-03 8.916280e-03 4.685301e-07 3.177758e-03 1.556039e-03 1.558867e-03 1.180382e-02 1.140074e-02 9.827249e-03 
    42.5                3.056126e-03 3.364333e-03 4.717650e-03 1.762728e-03 8.690270e-03 5.804589e-07 3.331623e-03 1.549264e-03 1.553108e-03 1.176195e-02 1.135515e-02 1.012971e-02 
    43.5                3.233724e-03 3.272056e-03 4.584881e-03 1.806903e-03 8.283396e-03 6.488041e-07 3.314493e-03 1.502641e-03 1.507109e-03 1.137349e-02 1.109487e-02 1.012424e-02 
    44.5                3.551184e-03 3.429133e-03 4.950591e-03 2.013478e-03 8.622318e-03 7.053727e-07 3.605548e-03 1.551052e-03 1.554790e-03 1.207194e-02 1.169704e-02 1.095140e-02 
    45.5                3.537690e-03 3.777111e-03 5.087875e-03 2.095618e-03 8.650607e-03 7.026870e-07 3.708098e-03 1.554157e-03 1.557089e-03 1.225318e-02 1.195958e-02 1.138257e-02 
    46.5                3.634359e-03 3.695782e-03 5.009189e-03 2.222541e-03 8.426326e-03 8.295606e-07 3.803670e-03 1.518242e-03 1.523512e-03 1.211619e-02 1.181273e-02 1.143459e-02 
    47.5                3.887902e-03 3.853892e-03 5.061911e-03 2.508134e-03 8.378425e-03 1.624274e-06 4.089461e-03 1.542609e-03 1.551623e-03 1.236741e-02 1.211754e-02 1.202495e-02 
    48.5                4.263342e-03 3.953126e-03 5.272722e-03 2.824105e-03 8.349798e-03 1.981603e-06 4.419152e-03 1.592385e-03 1.603167e-03 1.277884e-02 1.247904e-02 1.281061e-02 
    49.5                4.682376e-03 4.384617e-03 5.629813e-03 3.149003e-03 8.623606e-03 2.475958e-06 4.817065e-03 1.655313e-03 1.666707e-03 1.353893e-02 1.336374e-02 1.401212e-02 
    50.5                5.397458e-03 4.668870e-03 6.097222e-03 3.731533e-03 8.945442e-03 3.835111e-06 5.482925e-03 1.744114e-03 1.759662e-03 1.465461e-02 1.442952e-02 1.562856e-02 
    51.5                5.995567e-03 5.364511e-03 6.511471e-03 4.795785e-03 9.279640e-03 6.875179e-06 6.624157e-03 1.833504e-03 1.862368e-03 1.616681e-02 1.577807e-02 1.781022e-02 
    52.5                6.024445e-03 6.093696e-03 6.495729e-03 5.510362e-03 9.146820e-03 8.895195e-06 7.320767e-03 1.886432e-03 1.925761e-03 1.667927e-02 1.636614e-02 1.894152e-02 
    53.5                6.145770e-03 6.234459e-03 6.265935e-03 5.957163e-03 8.793126e-03 1.033849e-05 7.701471e-03 1.907388e-03 1.955169e-03 1.662036e-02 1.638493e-02 1.931473e-02 
    54.5                5.785706e-03 6.372005e-03 5.953213e-03 6.097433e-03 8.356041e-03 1.015510e-05 7.761154e-03 1.891419e-03 1.942496e-03 1.615556e-02 1.591856e-02 1.900560e-02 
    55.5                5.850220e-03 6.313060e-03 5.702257e-03 6.079435e-03 7.988740e-03 1.036530e-05 7.671990e-03 1.871521e-03 1.922985e-03 1.566789e-02 1.568053e-02 1.878348e-02 
    56.5                5.572504e-03 6.187469e-03 5.512948e-03 6.036608e-03 7.617720e-03 1.016040e-05 7.564959e-03 1.834529e-03 1.884949e-03 1.519831e-02 1.510624e-02 1.828889e-02 
    57.5                5.091654e-03 5.947677e-03 5.064063e-03 5.700923e-03 6.932974e-03 9.571032e-06 7.096941e-03 1.746248e-03 1.793272e-03 1.404951e-02 1.404179e-02 1.711942e-02 
    58.5                4.898403e-03 5.488032e-03 4.657978e-03 5.489282e-03 6.278090e-03 9.839354e-06 6.755654e-03 1.621191e-03 1.666491e-03 1.307879e-02 1.306320e-02 1.611367e-02 
    59.5                4.692187e-03 5.198592e-03 4.370118e-03 5.355776e-03 5.792027e-03 1.018667e-05 6.527517e-03 1.490657e-03 1.535219e-03 1.238889e-02 1.234142e-02 1.538832e-02 
    60.5                4.279613e-03 5.031544e-03 3.931763e-03 5.207661e-03 5.262894e-03 1.033234e-05 6.268686e-03 1.333989e-03 1.378957e-03 1.152846e-02 1.150712e-02 1.447612e-02 
    61.5                3.752860e-03 4.568730e-03 3.374863e-03 4.911222e-03 4.541595e-03 9.845829e-06 5.826246e-03 1.169686e-03 1.213806e-03 1.029783e-02 1.021011e-02 1.303173e-02 
    62.5                3.073246e-03 4.232500e-03 2.785127e-03 4.333652e-03 3.785217e-03 8.976671e-06 5.093132e-03 1.000734e-03 1.040186e-03 8.774749e-03 8.836328e-03 1.130921e-02 
    63.5                2.516663e-03 3.467068e-03 2.220115e-03 3.615604e-03 3.002511e-03 7.672462e-06 4.219410e-03 8.256912e-04 8.587196e-04 7.125875e-03 7.193149e-03 9.266651e-03 
    64.5                2.015927e-03 2.858173e-03 1.757223e-03 2.979064e-03 2.385729e-03 6.307521e-06 3.458189e-03 6.557751e-04 6.828977e-04 5.750220e-03 5.823985e-03 7.535374e-03 
    65.5                1.545641e-03 2.274574e-03 1.314879e-03 2.430720e-03 1.816460e-03 5.191819e-06 2.794291e-03 4.954245e-04 5.181382e-04 4.501133e-03 4.540163e-03 5.932221e-03 
    66.5                1.105100e-03 1.829673e-03 9.510505e-04 1.909734e-03 1.337249e-03 4.213243e-06 2.175898e-03 3.551954e-04 3.733644e-04 3.405834e-03 3.456977e-03 4.542632e-03 
    67.5                7.158724e-04 1.346831e-03 6.034969e-04 1.385885e-03 8.922754e-04 3.165468e-06 1.561390e-03 2.307194e-04 2.444109e-04 2.344539e-03 2.406188e-03 3.175410e-03 
    68.5                4.056583e-04 9.100330e-04 3.244073e-04 9.275760e-04 5.403073e-04 1.995268e-06 1.032208e-03 1.314761e-04 1.411852e-04 1.459159e-03 1.520576e-03 2.010295e-03 
    69.5                1.797548e-04 5.576899e-04 1.450912e-04 5.279016e-04 2.849465e-04 1.003509e-06 5.828711e-04 6.300897e-05 6.881843e-05 7.774790e-04 8.417953e-04 1.102322e-03 
    70.5                4.556701e-05 2.802499e-04 4.932778e-05 2.293147e-04 1.167300e-04 3.840587e-07 2.517962e-04 2.352799e-05 2.611849e-05 3.191714e-04 3.666912e-04 4.728756e-04 
    71.5                5.898920e-06 1.010693e-04 1.247699e-05 6.199161e-05 3.134365e-05 1.179236e-07 6.815781e-05 5.910840e-06 6.601692e-06 8.503118e-05 1.162551e-04 1.422727e-04 
    72.5                1.282158e-07 1.774257e-05 1.437798e-06 8.720797e-06 4.176304e-06 2.019596e-08 9.581996e-06 8.328275e-07 9.293076e-07 1.145718e-05 1.890607e-05 2.218796e-05 
    73.5                0.000000e+00 1.384749e-06 4.697613e-08 4.405691e-07 1.853324e-07 1.989139e-09 4.846835e-07 3.494600e-08 3.990179e-08 5.363549e-07 1.407557e-06 1.515043e-06 
    74.5                0.000000e+00 0.000000e+00 0.000000e+00 0.000000e+00 0.000000e+00 0.000000e+00 0.000000e+00 0.000000e+00 0.000000e+00 0.000000e+00 0.000000e+00 0.000000e+00 
    75.5                0.000000e+00 0.000000e+00 0.000000e+00 0.000000e+00 0.000000e+00 0.000000e+00 0.000000e+00 0.000000e+00 0.000000e+00 0.000000e+00 0.000000e+00 0.000000e+00 
    76.5                0.000000e+00 0.000000e+00 0.000000e+00 0.000000e+00 0.000000e+00 0.000000e+00 0.000000e+00 0.000000e+00 0.000000e+00 0.000000e+00 0.000000e+00 0.000000e+00 
    77.5                0.000000e+00 0.000000e+00 0.000000e+00 0.000000e+00 0.000000e+00 0.000000e+00 0.000000e+00 0.000000e+00 0.000000e+00 0.000000e+00 0.000000e+00 0.000000e+00 
    78.5                0.000000e+00 0.000000e+00 0.000000e+00 0.000000e+00 0.000000e+00 0.000000e+00 0.000000e+00 0.000000e+00 0.000000e+00 0.000000e+00 0.000000e+00 0.000000e+00 
    79.5                0.000000e+00 0.000000e+00 0.000000e+00 0.000000e+00 0.000000e+00 0.000000e+00 0.000000e+00 0.000000e+00 0.000000e+00 0.000000e+00 0.000000e+00 0.000000e+00 


