# 80 rows of flux data
# 12 columns of flux data
# 
# total cross-sectional flux  1.040554e+00 /m^2/yr
#
#                             +x ram      -x wake      +y port -y starboard    +z zenith     -z nadir        Earth          Sun     anti-Sun      rot (x)      rot (y)      rot (z) 
# average speed (km/s)         37.07        38.36        33.02        42.57        31.87        46.03        36.03        28.12        27.93        34.02        34.35        36.98 
# total flux (#/m2/yr)  2.569054e-01 2.156671e-01 3.244117e-01 1.720519e-01 5.924793e-01 2.496384e-04 1.808074e-01 1.689048e-01 1.674433e-01 8.619869e-01 8.316161e-01 7.600788e-01 
# velocity (km/s)
     0.5                0.000000e+00 0.000000e+00 0.000000e+00 0.000000e+00 0.000000e+00 0.000000e+00 0.000000e+00 0.000000e+00 0.000000e+00 0.000000e+00 0.000000e+00 0.000000e+00 
     1.5                0.000000e+00 0.000000e+00 0.000000e+00 0.000000e+00 0.000000e+00 0.000000e+00 0.000000e+00 0.000000e+00 0.000000e+00 0.000000e+00 0.000000e+00 0.000000e+00 
     2.5                3.192827e-05 1.190592e-04 8.766367e-05 8.659029e-05 1.552878e-04 6.523317e-08 5.513321e-05 8.344827e-05 8.306209e-05 2.587866e-04 2.414573e-04 2.557724e-04 
     3.5                3.647895e-04 4.740267e-04 4.107567e-04 4.661575e-04 7.595539e-04 4.567513e-07 2.621575e-04 4.499745e-04 4.331347e-04 1.289867e-03 1.258375e-03 1.348187e-03 
     4.5                9.600331e-04 8.441231e-04 8.682053e-04 9.432444e-04 1.648917e-03 1.094325e-06 5.395992e-04 9.835847e-04 9.634777e-04 2.731275e-03 2.718963e-03 2.841264e-03 
     5.5                1.612428e-03 1.251569e-03 1.429548e-03 1.399599e-03 2.740956e-03 1.703762e-06 8.629539e-04 1.610083e-03 1.592437e-03 4.398607e-03 4.403516e-03 4.472792e-03 
     6.5                2.276502e-03 1.620533e-03 2.111564e-03 1.796892e-03 4.055977e-03 2.267447e-06 1.218350e-03 2.242694e-03 2.235030e-03 6.287749e-03 6.249155e-03 6.130738e-03 
     7.5                2.841304e-03 1.984564e-03 2.828953e-03 2.093452e-03 5.447407e-03 2.656143e-06 1.572279e-03 2.822636e-03 2.825055e-03 8.187946e-03 8.078353e-03 7.655546e-03 
     8.5                3.350463e-03 2.320212e-03 3.522521e-03 2.326393e-03 6.814005e-03 2.920795e-06 1.890654e-03 3.354075e-03 3.361882e-03 9.986641e-03 9.816350e-03 9.042708e-03 
     9.5                3.766904e-03 2.575023e-03 4.183453e-03 2.493066e-03 8.123404e-03 3.137807e-06 2.183688e-03 3.830493e-03 3.834281e-03 1.166986e-02 1.138657e-02 1.021791e-02 
    10.5                4.099978e-03 2.876254e-03 4.842933e-03 2.593820e-03 9.405577e-03 3.276873e-06 2.465994e-03 4.284734e-03 4.281641e-03 1.327551e-02 1.290631e-02 1.131255e-02 
    11.5                4.465513e-03 3.100563e-03 5.592771e-03 2.678891e-03 1.091602e-02 3.325472e-06 2.748180e-03 4.742665e-03 4.735280e-03 1.511046e-02 1.458792e-02 1.242808e-02 
    12.5                4.729775e-03 3.274425e-03 6.160307e-03 2.679579e-03 1.205614e-02 3.293195e-06 2.978432e-03 5.062649e-03 5.053259e-03 1.645428e-02 1.583849e-02 1.321832e-02 
    13.5                4.892037e-03 3.309587e-03 6.616259e-03 2.629916e-03 1.305219e-02 3.196800e-06 3.076566e-03 5.197020e-03 5.186182e-03 1.754026e-02 1.683051e-02 1.369878e-02 
    14.5                4.797582e-03 3.432472e-03 6.878748e-03 2.569729e-03 1.359814e-02 3.147244e-06 3.134915e-03 5.254163e-03 5.240201e-03 1.811705e-02 1.732075e-02 1.387756e-02 
    15.5                4.951569e-03 3.492424e-03 7.384226e-03 2.490903e-03 1.465085e-02 2.995018e-06 3.288942e-03 5.364232e-03 5.351752e-03 1.927299e-02 1.835474e-02 1.438049e-02 
    16.5                4.907935e-03 3.543622e-03 7.522930e-03 2.430395e-03 1.491708e-02 2.960058e-06 3.320029e-03 5.382109e-03 5.370055e-03 1.953902e-02 1.857595e-02 1.444445e-02 
    17.5                4.922589e-03 3.554218e-03 7.724955e-03 2.351199e-03 1.532850e-02 2.786531e-06 3.380059e-03 5.345637e-03 5.333413e-03 1.995357e-02 1.893192e-02 1.456510e-02 
    18.5                4.888496e-03 3.614219e-03 7.935197e-03 2.254837e-03 1.576661e-02 2.631709e-06 3.440706e-03 5.304663e-03 5.292381e-03 2.038502e-02 1.930655e-02 1.467376e-02 
    19.5                4.845975e-03 3.595830e-03 8.009713e-03 2.164811e-03 1.586474e-02 2.503496e-06 3.495449e-03 5.191585e-03 5.179365e-03 2.046119e-02 1.930774e-02 1.460488e-02 
    20.5                4.770577e-03 3.542698e-03 7.907417e-03 2.029351e-03 1.566419e-02 2.393370e-06 3.453613e-03 5.005571e-03 4.994256e-03 2.012644e-02 1.901767e-02 1.431675e-02 
    21.5                4.620813e-03 3.590503e-03 7.967379e-03 1.953789e-03 1.576123e-02 2.251030e-06 3.467583e-03 4.864777e-03 4.853596e-03 2.018356e-02 1.900877e-02 1.422562e-02 
    22.5                4.684410e-03 3.514934e-03 8.090072e-03 1.869496e-03 1.599574e-02 2.109325e-06 3.527903e-03 4.741180e-03 4.731056e-03 2.040610e-02 1.917887e-02 1.424903e-02 
    23.5                4.464801e-03 3.373038e-03 7.666629e-03 1.726444e-03 1.514310e-02 1.903685e-06 3.356252e-03 4.438087e-03 4.429621e-03 1.929279e-02 1.816884e-02 1.350739e-02 
    24.5                4.207634e-03 3.290978e-03 7.361695e-03 1.614928e-03 1.451162e-02 1.751002e-06 3.257662e-03 4.172927e-03 4.164234e-03 1.847937e-02 1.736951e-02 1.291185e-02 
    25.5                4.112989e-03 3.204582e-03 7.192526e-03 1.516760e-03 1.416970e-02 1.608997e-06 3.196632e-03 3.945285e-03 3.937538e-03 1.801053e-02 1.692635e-02 1.255459e-02 
    26.5                3.938425e-03 3.177522e-03 6.955009e-03 1.460273e-03 1.364451e-02 1.530027e-06 3.146746e-03 3.737694e-03 3.729798e-03 1.737947e-02 1.631108e-02 1.216297e-02 
    27.5                3.873919e-03 3.049871e-03 6.708934e-03 1.374406e-03 1.309312e-02 1.425131e-06 3.094987e-03 3.531137e-03 3.524046e-03 1.669772e-02 1.566919e-02 1.174804e-02 
    28.5                3.696210e-03 2.981203e-03 6.442068e-03 1.277506e-03 1.251490e-02 1.269134e-06 3.008659e-03 3.268426e-03 3.262535e-03 1.595903e-02 1.498166e-02 1.127062e-02 
    29.5                3.555403e-03 2.765136e-03 6.115314e-03 1.174414e-03 1.184081e-02 1.088055e-06 2.879146e-03 2.960625e-03 2.955369e-03 1.508802e-02 1.415046e-02 1.065173e-02 
    30.5                3.292409e-03 2.692859e-03 5.834578e-03 1.057118e-03 1.127803e-02 9.413394e-07 2.744170e-03 2.741043e-03 2.736708e-03 1.432976e-02 1.343622e-02 1.007292e-02 
    31.5                3.180417e-03 2.683661e-03 5.684084e-03 1.000224e-03 1.092323e-02 8.101473e-07 2.734361e-03 2.573962e-03 2.570469e-03 1.389825e-02 1.301999e-02 9.819718e-03 
    32.5                3.093925e-03 2.577005e-03 5.380154e-03 9.714927e-04 1.025795e-02 7.393093e-07 2.641769e-03 2.362753e-03 2.359043e-03 1.311086e-02 1.229541e-02 9.407840e-03 
    33.5                3.002452e-03 2.633657e-03 5.248316e-03 9.690886e-04 9.909185e-03 7.132336e-07 2.646519e-03 2.183404e-03 2.179827e-03 1.273639e-02 1.194930e-02 9.277461e-03 
    34.5                3.056464e-03 2.635610e-03 5.312459e-03 9.446171e-04 9.966931e-03 6.224289e-07 2.715302e-03 2.096050e-03 2.093386e-03 1.281758e-02 1.201682e-02 9.356344e-03 
    35.5                2.941550e-03 2.542357e-03 4.968900e-03 9.359913e-04 9.172752e-03 5.311919e-07 2.614672e-03 1.957625e-03 1.955251e-03 1.190816e-02 1.118893e-02 8.916266e-03 
    36.5                2.847587e-03 2.595783e-03 4.896434e-03 9.522763e-04 8.943348e-03 6.207486e-07 2.626133e-03 1.829366e-03 1.826997e-03 1.168498e-02 1.096082e-02 8.847081e-03 
    37.5                2.967930e-03 2.673057e-03 4.990159e-03 9.717108e-04 9.029791e-03 5.867911e-07 2.710954e-03 1.772353e-03 1.770476e-03 1.184296e-02 1.115946e-02 9.093249e-03 
    38.5                2.883397e-03 2.869745e-03 4.977227e-03 1.052640e-03 8.821327e-03 6.183746e-07 2.785513e-03 1.700390e-03 1.698297e-03 1.173082e-02 1.104826e-02 9.231277e-03 
    39.5                3.110317e-03 2.762602e-03 5.021257e-03 1.129201e-03 8.745595e-03 6.943239e-07 2.880078e-03 1.649633e-03 1.647046e-03 1.176664e-02 1.106621e-02 9.424811e-03 
    40.5                3.055149e-03 2.849796e-03 4.951939e-03 1.115004e-03 8.576233e-03 6.279210e-07 2.865240e-03 1.582350e-03 1.580311e-03 1.156508e-02 1.094568e-02 9.391417e-03 
    41.5                3.090336e-03 3.151691e-03 5.055468e-03 1.304036e-03 8.616214e-03 7.517324e-07 3.001665e-03 1.565202e-03 1.561084e-03 1.182417e-02 1.120520e-02 9.882236e-03 
    42.5                3.370114e-03 3.060524e-03 5.043981e-03 1.479452e-03 8.405810e-03 8.856894e-07 3.085928e-03 1.559120e-03 1.552968e-03 1.178596e-02 1.118108e-02 1.016481e-02 
    43.5                3.278486e-03 3.237659e-03 4.888599e-03 1.529538e-03 8.014317e-03 9.586229e-07 3.043560e-03 1.512589e-03 1.505819e-03 1.139596e-02 1.094059e-02 1.014706e-02 
    44.5                3.437789e-03 3.559575e-03 5.236875e-03 1.753804e-03 8.340161e-03 1.373408e-06 3.351657e-03 1.563977e-03 1.557019e-03 1.212100e-02 1.155363e-02 1.098276e-02 
    45.5                3.786948e-03 3.544649e-03 5.370803e-03 1.828763e-03 8.360125e-03 1.448593e-06 3.499699e-03 1.567340e-03 1.561622e-03 1.230597e-02 1.182082e-02 1.140717e-02 
    46.5                3.703935e-03 3.642561e-03 5.266208e-03 1.946995e-03 8.160960e-03 1.412259e-06 3.471456e-03 1.531940e-03 1.523621e-03 1.215521e-02 1.169319e-02 1.143183e-02 
    47.5                3.856824e-03 3.899861e-03 5.239499e-03 2.285628e-03 8.133260e-03 2.158516e-06 3.492259e-03 1.560648e-03 1.545476e-03 1.239441e-02 1.201627e-02 1.199943e-02 
    48.5                3.972423e-03 4.292409e-03 5.359099e-03 2.759058e-03 8.126856e-03 3.764134e-06 3.665147e-03 1.618728e-03 1.598214e-03 1.290431e-02 1.244562e-02 1.286628e-02 
    49.5                4.418417e-03 4.727781e-03 5.657100e-03 3.203866e-03 8.400649e-03 5.400183e-06 3.948565e-03 1.691438e-03 1.666204e-03 1.375170e-02 1.337865e-02 1.414384e-02 
    50.5                4.716289e-03 5.463614e-03 5.963422e-03 3.964066e-03 8.742522e-03 7.715344e-06 4.256180e-03 1.794418e-03 1.758829e-03 1.492271e-02 1.451372e-02 1.579817e-02 
    51.5                5.423715e-03 6.054411e-03 6.092542e-03 5.190668e-03 9.155218e-03 9.922473e-06 4.422896e-03 1.900235e-03 1.843602e-03 1.636541e-02 1.593163e-02 1.787584e-02 
    52.5                6.148590e-03 6.081932e-03 5.884612e-03 5.991562e-03 9.103578e-03 1.107225e-05 4.322309e-03 1.961374e-03 1.889835e-03 1.680787e-02 1.656814e-02 1.891804e-02 
    53.5                6.279873e-03 6.179602e-03 5.554544e-03 6.412674e-03 8.815643e-03 1.113927e-05 4.116158e-03 1.986688e-03 1.907180e-03 1.664079e-02 1.659195e-02 1.916393e-02 
    54.5                6.414489e-03 5.823493e-03 5.257761e-03 6.544317e-03 8.412922e-03 1.123680e-05 3.934785e-03 1.974100e-03 1.892563e-03 1.619023e-02 1.614733e-02 1.886591e-02 
    55.5                6.352751e-03 5.879938e-03 5.010880e-03 6.521239e-03 8.066898e-03 1.131544e-05 3.769645e-03 1.949591e-03 1.868593e-03 1.570042e-02 1.590971e-02 1.864005e-02 
    56.5                6.226223e-03 5.607177e-03 4.814089e-03 6.512823e-03 7.709441e-03 1.143002e-05 3.661767e-03 1.909293e-03 1.830077e-03 1.526191e-02 1.534939e-02 1.817185e-02 
    57.5                5.993759e-03 5.135113e-03 4.382724e-03 6.213282e-03 7.033767e-03 1.137343e-05 3.357493e-03 1.816319e-03 1.741651e-03 1.415132e-02 1.430309e-02 1.705651e-02 
    58.5                5.529724e-03 4.938104e-03 3.915037e-03 6.051934e-03 6.403928e-03 1.135637e-05 3.022098e-03 1.687143e-03 1.613764e-03 1.316052e-02 1.332546e-02 1.603498e-02 
    59.5                5.242080e-03 4.724501e-03 3.588055e-03 5.919901e-03 5.933407e-03 1.125688e-05 2.795287e-03 1.553077e-03 1.481308e-03 1.242611e-02 1.260199e-02 1.527287e-02 
    60.5                5.061813e-03 4.299311e-03 3.154013e-03 5.688843e-03 5.425490e-03 1.022737e-05 2.462337e-03 1.391193e-03 1.321220e-03 1.147198e-02 1.174523e-02 1.427402e-02 
    61.5                4.594955e-03 3.763596e-03 2.631248e-03 5.373782e-03 4.727335e-03 9.585384e-06 2.072796e-03 1.223186e-03 1.156116e-03 1.024141e-02 1.043696e-02 1.283568e-02 
    62.5                4.249768e-03 3.083411e-03 2.102238e-03 4.728327e-03 3.971529e-03 8.264548e-06 1.657762e-03 1.045965e-03 9.864327e-04 8.682300e-03 9.039569e-03 1.109837e-02 
    63.5                3.485378e-03 2.519991e-03 1.640957e-03 3.957261e-03 3.163934e-03 7.093241e-06 1.306107e-03 8.618979e-04 8.126448e-04 7.049413e-03 7.362101e-03 9.093213e-03 
    64.5                2.871435e-03 2.023141e-03 1.272101e-03 3.282055e-03 2.527924e-03 5.962890e-06 1.016373e-03 6.846226e-04 6.439109e-04 5.700618e-03 5.971377e-03 7.405950e-03 
    65.5                2.287307e-03 1.547927e-03 9.170742e-04 2.676122e-03 1.943450e-03 4.791548e-06 7.368250e-04 5.180868e-04 4.846777e-04 4.454989e-03 4.662138e-03 5.821835e-03 
    66.5                1.836813e-03 1.104508e-03 6.285445e-04 2.091614e-03 1.444025e-03 3.639195e-06 5.061688e-04 3.720976e-04 3.457851e-04 3.346465e-03 3.548697e-03 4.433795e-03 
    67.5                1.349432e-03 7.091134e-04 3.742051e-04 1.488197e-03 9.766269e-04 2.378211e-06 3.006809e-04 2.421108e-04 2.231772e-04 2.274269e-03 2.464307e-03 3.069822e-03 
    68.5                9.085678e-04 3.969131e-04 1.942627e-04 9.657373e-04 6.017084e-04 1.356271e-06 1.555628e-04 1.395211e-04 1.270692e-04 1.403616e-03 1.552388e-03 1.930077e-03 
    69.5                5.558369e-04 1.750151e-04 9.005847e-05 5.383008e-04 3.222444e-04 7.004949e-07 7.217004e-05 6.820730e-05 6.130654e-05 7.531273e-04 8.592577e-04 1.063710e-03 
    70.5                2.784085e-04 4.438101e-05 3.261262e-05 2.303310e-04 1.334821e-04 2.947860e-07 2.613894e-05 2.599268e-05 2.306549e-05 3.120978e-04 3.740148e-04 4.593170e-04 
    71.5                1.011361e-04 5.789177e-06 8.774384e-06 6.236490e-05 3.611075e-05 9.914176e-08 7.080758e-06 6.600593e-06 5.834678e-06 8.409521e-05 1.188366e-04 1.400589e-04 
    72.5                1.778358e-05 1.240596e-07 1.051408e-06 8.706287e-06 4.877743e-06 1.795401e-08 8.709253e-07 9.314726e-07 8.287439e-07 1.139573e-05 1.927916e-05 2.198024e-05 
    73.5                1.390592e-06 0.000000e+00 3.487348e-08 4.408887e-07 2.259928e-07 1.730970e-09 3.214128e-08 4.015125e-08 3.509760e-08 5.418689e-07 1.423940e-06 1.515902e-06 
    74.5                0.000000e+00 0.000000e+00 0.000000e+00 0.000000e+00 0.000000e+00 0.000000e+00 0.000000e+00 0.000000e+00 0.000000e+00 0.000000e+00 0.000000e+00 0.000000e+00 
    75.5                0.000000e+00 0.000000e+00 0.000000e+00 0.000000e+00 0.000000e+00 0.000000e+00 0.000000e+00 0.000000e+00 0.000000e+00 0.000000e+00 0.000000e+00 0.000000e+00 
    76.5                0.000000e+00 0.000000e+00 0.000000e+00 0.000000e+00 0.000000e+00 0.000000e+00 0.000000e+00 0.000000e+00 0.000000e+00 0.000000e+00 0.000000e+00 0.000000e+00 
    77.5                0.000000e+00 0.000000e+00 0.000000e+00 0.000000e+00 0.000000e+00 0.000000e+00 0.000000e+00 0.000000e+00 0.000000e+00 0.000000e+00 0.000000e+00 0.000000e+00 
    78.5                0.000000e+00 0.000000e+00 0.000000e+00 0.000000e+00 0.000000e+00 0.000000e+00 0.000000e+00 0.000000e+00 0.000000e+00 0.000000e+00 0.000000e+00 0.000000e+00 
    79.5                0.000000e+00 0.000000e+00 0.000000e+00 0.000000e+00 0.000000e+00 0.000000e+00 0.000000e+00 0.000000e+00 0.000000e+00 0.000000e+00 0.000000e+00 0.000000e+00 


