# 80 rows of flux data
# 12 columns of flux data
# 
# total cross-sectional flux  2.177280e+00 /m^2/yr
#
#                       +x vernal eq.           -x           +y           -y +z eclip. N. -z eclip. S.        Earth          Sun     anti-Sun      rot (x)      rot (y)      rot (z) 
# average speed (km/s)         23.94        24.56        24.18        24.31        21.58        19.36        24.44        24.65        24.66        23.62        23.63        24.25 
# total flux (#/m2/yr)  6.495505e-01 6.771143e-01 6.605709e-01 6.665479e-01 1.439788e-01 2.929781e-01 1.248725e+00 9.441262e-01 9.572776e-01 1.480503e+00 1.480145e+00 2.084266e+00 
# velocity (km/s)
     0.5                0.000000e+00 0.000000e+00 0.000000e+00 0.000000e+00 0.000000e+00 0.000000e+00 0.000000e+00 0.000000e+00 0.000000e+00 0.000000e+00 0.000000e+00 0.000000e+00 
     1.5                0.000000e+00 0.000000e+00 0.000000e+00 0.000000e+00 0.000000e+00 0.000000e+00 0.000000e+00 0.000000e+00 0.000000e+00 0.000000e+00 0.000000e+00 0.000000e+00 
     2.5                6.446509e-07 9.711355e-07 2.851752e-06 2.806537e-06 4.252173e-08 1.695966e-06 1.939770e-06 2.362347e-07 1.692704e-06 6.004395e-06 2.560696e-06 6.044560e-06 
     3.5                7.000699e-05 4.599911e-05 6.076477e-05 6.038222e-05 7.531472e-06 4.564718e-05 9.700765e-05 2.563561e-05 5.628007e-05 1.405870e-04 1.368702e-04 1.864960e-04 
     4.5                4.436000e-04 2.190728e-04 3.409298e-04 3.266468e-04 7.227685e-05 2.617116e-04 5.777510e-04 1.859709e-04 2.937435e-04 8.048253e-04 7.977233e-04 1.042859e-03 
     5.5                1.276316e-03 8.114172e-04 1.102421e-03 1.055207e-03 2.943220e-04 9.208824e-04 1.941957e-03 7.616465e-04 9.706371e-04 2.675325e-03 2.615989e-03 3.335286e-03 
     6.5                2.716386e-03 2.072811e-03 2.459546e-03 2.352354e-03 7.305495e-04 2.119215e-03 4.336328e-03 1.939581e-03 2.210307e-03 6.046440e-03 6.018047e-03 7.541437e-03 
     7.5                4.612986e-03 3.956432e-03 4.338491e-03 4.238755e-03 1.316421e-03 3.935728e-03 7.654962e-03 3.773832e-03 4.010520e-03 1.088106e-02 1.089328e-02 1.346029e-02 
     8.5                7.097848e-03 6.478522e-03 6.853020e-03 6.750462e-03 2.156796e-03 6.080696e-03 1.234164e-02 6.375429e-03 6.472860e-03 1.718004e-02 1.716761e-02 2.134565e-02 
     9.5                9.743491e-03 9.112094e-03 9.496275e-03 9.375282e-03 3.043645e-03 8.515642e-03 1.717808e-02 9.476962e-03 9.473727e-03 2.391596e-02 2.392808e-02 2.963012e-02 
    10.5                1.221158e-02 1.166636e-02 1.198893e-02 1.188888e-02 3.839753e-03 1.125384e-02 2.128456e-02 1.291262e-02 1.297794e-02 3.061261e-02 3.060283e-02 3.751145e-02 
    11.5                1.417773e-02 1.373382e-02 1.401054e-02 1.391666e-02 4.430618e-03 1.350165e-02 2.493966e-02 1.627485e-02 1.645860e-02 3.607350e-02 3.606284e-02 4.386595e-02 
    12.5                1.560264e-02 1.549789e-02 1.557292e-02 1.554466e-02 4.768324e-03 1.491026e-02 2.763715e-02 1.930380e-02 1.952360e-02 4.007488e-02 4.008110e-02 4.886758e-02 
    13.5                1.731331e-02 1.689690e-02 1.713793e-02 1.705971e-02 5.140412e-03 1.581270e-02 3.048688e-02 2.224521e-02 2.247059e-02 4.369530e-02 4.370091e-02 5.372342e-02 
    14.5                1.905992e-02 1.854037e-02 1.889947e-02 1.879504e-02 5.605426e-03 1.618132e-02 3.399129e-02 2.535353e-02 2.562096e-02 4.733042e-02 4.724270e-02 5.913736e-02 
    15.5                2.058345e-02 2.025518e-02 2.049771e-02 2.043364e-02 5.987144e-03 1.600035e-02 3.729909e-02 2.831000e-02 2.860681e-02 5.033085e-02 5.023548e-02 6.422878e-02 
    16.5                2.217797e-02 2.187989e-02 2.208281e-02 2.201886e-02 6.304750e-03 1.587399e-02 4.042559e-02 3.111340e-02 3.143223e-02 5.328019e-02 5.325070e-02 6.923863e-02 
    17.5                2.335965e-02 2.331763e-02 2.335093e-02 2.334210e-02 6.503004e-03 1.533039e-02 4.307254e-02 3.359450e-02 3.393517e-02 5.537285e-02 5.535696e-02 7.332726e-02 
    18.5                2.435864e-02 2.451199e-02 2.448244e-02 2.451148e-02 6.674488e-03 1.454524e-02 4.554744e-02 3.578990e-02 3.615228e-02 5.704786e-02 5.692885e-02 7.686217e-02 
    19.5                2.514594e-02 2.559816e-02 2.533606e-02 2.542054e-02 6.750831e-03 1.395223e-02 4.738796e-02 3.755078e-02 3.793562e-02 5.833825e-02 5.833071e-02 7.971473e-02 
    20.5                2.574812e-02 2.623703e-02 2.591983e-02 2.601240e-02 6.691176e-03 1.313069e-02 4.869430e-02 3.876067e-02 3.917054e-02 5.892055e-02 5.896885e-02 8.161238e-02 
    21.5                2.659748e-02 2.681582e-02 2.669145e-02 2.673810e-02 6.638735e-03 1.230987e-02 5.028722e-02 4.007760e-02 4.052337e-02 5.978196e-02 5.976157e-02 8.391088e-02 
    22.5                2.732508e-02 2.765929e-02 2.748775e-02 2.755162e-02 6.644425e-03 1.179036e-02 5.205905e-02 4.144312e-02 4.192703e-02 6.100745e-02 6.095791e-02 8.641278e-02 
    23.5                2.763951e-02 2.829594e-02 2.790395e-02 2.803569e-02 6.537000e-03 1.097841e-02 5.305738e-02 4.221125e-02 4.272654e-02 6.131147e-02 6.130904e-02 8.786742e-02 
    24.5                2.776273e-02 2.842570e-02 2.803851e-02 2.816976e-02 6.307181e-03 1.017448e-02 5.342911e-02 4.241733e-02 4.296416e-02 6.102997e-02 6.101312e-02 8.827540e-02 
    25.5                2.763729e-02 2.848766e-02 2.799741e-02 2.816945e-02 6.013841e-03 9.295143e-03 5.355146e-02 4.232991e-02 4.290399e-02 6.041896e-02 6.037630e-02 8.819417e-02 
    26.5                2.709611e-02 2.825174e-02 2.756327e-02 2.779561e-02 5.640656e-03 8.437068e-03 5.292127e-02 4.167397e-02 4.225890e-02 5.908310e-02 5.907489e-02 8.694808e-02 
    27.5                2.633770e-02 2.763984e-02 2.686077e-02 2.712673e-02 5.234152e-03 7.590859e-03 5.161046e-02 4.054960e-02 4.113859e-02 5.722373e-02 5.721396e-02 8.479543e-02 
    28.5                2.548907e-02 2.677424e-02 2.600575e-02 2.627022e-02 4.811958e-03 6.808389e-03 5.012773e-02 3.914046e-02 3.972666e-02 5.507914e-02 5.506619e-02 8.210519e-02 
    29.5                2.439689e-02 2.584292e-02 2.497546e-02 2.527221e-02 4.389264e-03 6.035327e-03 4.823399e-02 3.748282e-02 3.806200e-02 5.263750e-02 5.262893e-02 7.892272e-02 
    30.5                2.306246e-02 2.467027e-02 2.369799e-02 2.403222e-02 3.926880e-03 5.285931e-03 4.586801e-02 3.545168e-02 3.601303e-02 4.973191e-02 4.973428e-02 7.497623e-02 
    31.5                2.161698e-02 2.325713e-02 2.227460e-02 2.261503e-02 3.451454e-03 4.529208e-03 4.318497e-02 3.315537e-02 3.369285e-02 4.652180e-02 4.650767e-02 7.050021e-02 
    32.5                1.990421e-02 2.170615e-02 2.061941e-02 2.099724e-02 2.977162e-03 3.833570e-03 4.008953e-02 3.054225e-02 3.104786e-02 4.293166e-02 4.292318e-02 6.536569e-02 
    33.5                1.799505e-02 1.992436e-02 1.876159e-02 1.916625e-02 2.538620e-03 3.211151e-03 3.654518e-02 2.763893e-02 2.810275e-02 3.897756e-02 3.896885e-02 5.957008e-02 
    34.5                1.597925e-02 1.798133e-02 1.676673e-02 1.718848e-02 2.122474e-03 2.646217e-03 3.273359e-02 2.456934e-02 2.498664e-02 3.478028e-02 3.478441e-02 5.334108e-02 
    35.5                1.403685e-02 1.593350e-02 1.478074e-02 1.518107e-02 1.725688e-03 2.123162e-03 2.888721e-02 2.151247e-02 2.188277e-02 3.058743e-02 3.059495e-02 4.707045e-02 
    36.5                1.207154e-02 1.396914e-02 1.280477e-02 1.320874e-02 1.365149e-03 1.651387e-03 2.511282e-02 1.852441e-02 1.884525e-02 2.646884e-02 2.649396e-02 4.088277e-02 
    37.5                1.020030e-02 1.201831e-02 1.091821e-02 1.130455e-02 1.054807e-03 1.259694e-03 2.144390e-02 1.566984e-02 1.594442e-02 2.254599e-02 2.254064e-02 3.490395e-02 
    38.5                8.381439e-03 1.012840e-02 9.059707e-03 9.432803e-03 7.918075e-04 9.318116e-04 1.787098e-02 1.292377e-02 1.315013e-02 1.871350e-02 1.872972e-02 2.906145e-02 
    39.5                6.595592e-03 8.307466e-03 7.264403e-03 7.629967e-03 5.692075e-04 6.611297e-04 1.438380e-02 1.030149e-02 1.047988e-02 1.503791e-02 1.504557e-02 2.340241e-02 
    40.5                4.948976e-03 6.536543e-03 5.562843e-03 5.902418e-03 3.865232e-04 4.442387e-04 1.106471e-02 7.849844e-03 7.984017e-03 1.155298e-02 1.157216e-02 1.802525e-02 
    41.5                3.539136e-03 4.908127e-03 4.061744e-03 4.355809e-03 2.463644e-04 2.808058e-04 8.107129e-03 5.706767e-03 5.801434e-03 8.467404e-03 8.496261e-03 1.324546e-02 
    42.5                2.398251e-03 3.512220e-03 2.820250e-03 3.059947e-03 1.464462e-04 1.659302e-04 5.662803e-03 3.945818e-03 4.009961e-03 5.906508e-03 5.936000e-03 9.260166e-03 
    43.5                1.492783e-03 2.384339e-03 1.831698e-03 2.023626e-03 8.031279e-05 9.064167e-05 3.707066e-03 2.558823e-03 2.598590e-03 3.868056e-03 3.889324e-03 6.072855e-03 
    44.5                8.157961e-04 1.492037e-03 1.067163e-03 1.213187e-03 3.892316e-05 4.398910e-05 2.179897e-03 1.502302e-03 1.523038e-03 2.285702e-03 2.312888e-03 3.603417e-03 
    45.5                3.703457e-04 8.202146e-04 5.324025e-04 6.298602e-04 1.584200e-05 1.799221e-05 1.103899e-03 7.628048e-04 7.714744e-04 1.164136e-03 1.192240e-03 1.847823e-03 
    46.5                1.253668e-04 3.752884e-04 2.131550e-04 2.674615e-04 5.118307e-06 5.883848e-06 4.459236e-04 3.153586e-04 3.179480e-04 4.811372e-04 5.011028e-04 7.706319e-04 
    47.5                2.957434e-05 1.284783e-04 6.170665e-05 8.354997e-05 1.168360e-06 1.379291e-06 1.309089e-04 9.691181e-05 9.696734e-05 1.453645e-04 1.581299e-04 2.382300e-04 
    48.5                4.326846e-06 3.075863e-05 1.225183e-05 1.814795e-05 1.665024e-07 2.053732e-07 2.631577e-05 2.079108e-05 2.067419e-05 3.041105e-05 3.509272e-05 5.143010e-05 
    49.5                1.489003e-07 4.383256e-06 1.276400e-06 2.237659e-06 1.212402e-08 1.646708e-08 2.812600e-06 2.552897e-06 2.510892e-06 3.514705e-06 4.532447e-06 6.317653e-06 
    50.5                0.000000e+00 1.307045e-07 2.138580e-08 5.406248e-08 9.212107e-11 2.004331e-10 5.296122e-08 6.621932e-08 6.322247e-08 7.545139e-08 1.307052e-07 1.621474e-07 
    51.5                0.000000e+00 0.000000e+00 0.000000e+00 0.000000e+00 0.000000e+00 0.000000e+00 0.000000e+00 0.000000e+00 0.000000e+00 0.000000e+00 0.000000e+00 0.000000e+00 
    52.5                0.000000e+00 0.000000e+00 0.000000e+00 0.000000e+00 0.000000e+00 0.000000e+00 0.000000e+00 0.000000e+00 0.000000e+00 0.000000e+00 0.000000e+00 0.000000e+00 
    53.5                0.000000e+00 0.000000e+00 0.000000e+00 0.000000e+00 0.000000e+00 0.000000e+00 0.000000e+00 0.000000e+00 0.000000e+00 0.000000e+00 0.000000e+00 0.000000e+00 
    54.5                0.000000e+00 0.000000e+00 0.000000e+00 0.000000e+00 0.000000e+00 0.000000e+00 0.000000e+00 0.000000e+00 0.000000e+00 0.000000e+00 0.000000e+00 0.000000e+00 
    55.5                0.000000e+00 0.000000e+00 0.000000e+00 0.000000e+00 0.000000e+00 0.000000e+00 0.000000e+00 0.000000e+00 0.000000e+00 0.000000e+00 0.000000e+00 0.000000e+00 
    56.5                0.000000e+00 0.000000e+00 0.000000e+00 0.000000e+00 0.000000e+00 0.000000e+00 0.000000e+00 0.000000e+00 0.000000e+00 0.000000e+00 0.000000e+00 0.000000e+00 
    57.5                0.000000e+00 0.000000e+00 0.000000e+00 0.000000e+00 0.000000e+00 0.000000e+00 0.000000e+00 0.000000e+00 0.000000e+00 0.000000e+00 0.000000e+00 0.000000e+00 
    58.5                0.000000e+00 0.000000e+00 0.000000e+00 0.000000e+00 0.000000e+00 0.000000e+00 0.000000e+00 0.000000e+00 0.000000e+00 0.000000e+00 0.000000e+00 0.000000e+00 
    59.5                0.000000e+00 0.000000e+00 0.000000e+00 0.000000e+00 0.000000e+00 0.000000e+00 0.000000e+00 0.000000e+00 0.000000e+00 0.000000e+00 0.000000e+00 0.000000e+00 
    60.5                0.000000e+00 0.000000e+00 0.000000e+00 0.000000e+00 0.000000e+00 0.000000e+00 0.000000e+00 0.000000e+00 0.000000e+00 0.000000e+00 0.000000e+00 0.000000e+00 
    61.5                0.000000e+00 0.000000e+00 0.000000e+00 0.000000e+00 0.000000e+00 0.000000e+00 0.000000e+00 0.000000e+00 0.000000e+00 0.000000e+00 0.000000e+00 0.000000e+00 
    62.5                0.000000e+00 0.000000e+00 0.000000e+00 0.000000e+00 0.000000e+00 0.000000e+00 0.000000e+00 0.000000e+00 0.000000e+00 0.000000e+00 0.000000e+00 0.000000e+00 
    63.5                0.000000e+00 0.000000e+00 0.000000e+00 0.000000e+00 0.000000e+00 0.000000e+00 0.000000e+00 0.000000e+00 0.000000e+00 0.000000e+00 0.000000e+00 0.000000e+00 
    64.5                0.000000e+00 0.000000e+00 0.000000e+00 0.000000e+00 0.000000e+00 0.000000e+00 0.000000e+00 0.000000e+00 0.000000e+00 0.000000e+00 0.000000e+00 0.000000e+00 
    65.5                0.000000e+00 0.000000e+00 0.000000e+00 0.000000e+00 0.000000e+00 0.000000e+00 0.000000e+00 0.000000e+00 0.000000e+00 0.000000e+00 0.000000e+00 0.000000e+00 
    66.5                0.000000e+00 0.000000e+00 0.000000e+00 0.000000e+00 0.000000e+00 0.000000e+00 0.000000e+00 0.000000e+00 0.000000e+00 0.000000e+00 0.000000e+00 0.000000e+00 
    67.5                0.000000e+00 0.000000e+00 0.000000e+00 0.000000e+00 0.000000e+00 0.000000e+00 0.000000e+00 0.000000e+00 0.000000e+00 0.000000e+00 0.000000e+00 0.000000e+00 
    68.5                0.000000e+00 0.000000e+00 0.000000e+00 0.000000e+00 0.000000e+00 0.000000e+00 0.000000e+00 0.000000e+00 0.000000e+00 0.000000e+00 0.000000e+00 0.000000e+00 
    69.5                0.000000e+00 0.000000e+00 0.000000e+00 0.000000e+00 0.000000e+00 0.000000e+00 0.000000e+00 0.000000e+00 0.000000e+00 0.000000e+00 0.000000e+00 0.000000e+00 
    70.5                0.000000e+00 0.000000e+00 0.000000e+00 0.000000e+00 0.000000e+00 0.000000e+00 0.000000e+00 0.000000e+00 0.000000e+00 0.000000e+00 0.000000e+00 0.000000e+00 
    71.5                0.000000e+00 0.000000e+00 0.000000e+00 0.000000e+00 0.000000e+00 0.000000e+00 0.000000e+00 0.000000e+00 0.000000e+00 0.000000e+00 0.000000e+00 0.000000e+00 
    72.5                0.000000e+00 0.000000e+00 0.000000e+00 0.000000e+00 0.000000e+00 0.000000e+00 0.000000e+00 0.000000e+00 0.000000e+00 0.000000e+00 0.000000e+00 0.000000e+00 
    73.5                0.000000e+00 0.000000e+00 0.000000e+00 0.000000e+00 0.000000e+00 0.000000e+00 0.000000e+00 0.000000e+00 0.000000e+00 0.000000e+00 0.000000e+00 0.000000e+00 
    74.5                0.000000e+00 0.000000e+00 0.000000e+00 0.000000e+00 0.000000e+00 0.000000e+00 0.000000e+00 0.000000e+00 0.000000e+00 0.000000e+00 0.000000e+00 0.000000e+00 
    75.5                0.000000e+00 0.000000e+00 0.000000e+00 0.000000e+00 0.000000e+00 0.000000e+00 0.000000e+00 0.000000e+00 0.000000e+00 0.000000e+00 0.000000e+00 0.000000e+00 
    76.5                0.000000e+00 0.000000e+00 0.000000e+00 0.000000e+00 0.000000e+00 0.000000e+00 0.000000e+00 0.000000e+00 0.000000e+00 0.000000e+00 0.000000e+00 0.000000e+00 
    77.5                0.000000e+00 0.000000e+00 0.000000e+00 0.000000e+00 0.000000e+00 0.000000e+00 0.000000e+00 0.000000e+00 0.000000e+00 0.000000e+00 0.000000e+00 0.000000e+00 
    78.5                0.000000e+00 0.000000e+00 0.000000e+00 0.000000e+00 0.000000e+00 0.000000e+00 0.000000e+00 0.000000e+00 0.000000e+00 0.000000e+00 0.000000e+00 0.000000e+00 
    79.5                0.000000e+00 0.000000e+00 0.000000e+00 0.000000e+00 0.000000e+00 0.000000e+00 0.000000e+00 0.000000e+00 0.000000e+00 0.000000e+00 0.000000e+00 0.000000e+00 


