# 80 rows of flux data
# 12 columns of flux data
# 
# total cross-sectional flux  1.047673e+00 /m^2/yr
#
#                             +x ram      -x wake      +y port -y starboard    +z zenith     -z nadir        Earth          Sun     anti-Sun      rot (x)      rot (y)      rot (z) 
# average speed (km/s)         37.02        38.30        28.84        42.78        33.47        39.66        31.20        28.19        27.75        33.87        35.45        35.47 
# total flux (#/m2/yr)  2.591233e-01 2.174223e-01 3.618545e-01 1.907656e-01 5.343892e-01 3.246272e-04 1.096811e-01 1.716463e-01 1.675137e-01 8.670567e-01 7.931625e-01 8.042710e-01 
# velocity (km/s)
     0.5                0.000000e+00 0.000000e+00 0.000000e+00 0.000000e+00 0.000000e+00 0.000000e+00 0.000000e+00 0.000000e+00 0.000000e+00 0.000000e+00 0.000000e+00 0.000000e+00 
     1.5                0.000000e+00 0.000000e+00 0.000000e+00 0.000000e+00 0.000000e+00 0.000000e+00 0.000000e+00 0.000000e+00 0.000000e+00 0.000000e+00 0.000000e+00 0.000000e+00 
     2.5                2.986487e-05 1.194169e-04 8.307970e-05 8.110749e-05 1.556489e-04 6.589025e-08 2.968534e-05 8.321936e-05 7.818616e-05 2.525681e-04 2.411382e-04 2.463604e-04 
     3.5                3.517031e-04 4.753564e-04 3.708807e-04 4.480157e-04 7.802800e-04 4.248637e-07 1.344336e-04 4.467020e-04 4.172128e-04 1.269128e-03 1.267210e-03 1.294230e-03 
     4.5                9.602728e-04 8.466642e-04 8.181913e-04 9.448228e-04 1.680538e-03 1.088119e-06 2.826712e-04 9.863875e-04 9.487269e-04 2.736541e-03 2.751153e-03 2.805138e-03 
     5.5                1.619228e-03 1.259436e-03 1.422637e-03 1.426245e-03 2.733806e-03 1.811315e-06 4.714828e-04 1.622170e-03 1.584239e-03 4.434826e-03 4.418001e-03 4.491888e-03 
     6.5                2.295956e-03 1.634948e-03 2.228866e-03 1.857937e-03 3.932723e-03 2.530304e-06 6.969024e-04 2.262383e-03 2.238987e-03 6.359052e-03 6.189658e-03 6.287161e-03 
     7.5                2.866641e-03 2.000398e-03 3.146933e-03 2.166776e-03 5.143340e-03 3.094558e-06 9.447646e-04 2.844982e-03 2.835061e-03 8.269920e-03 7.877147e-03 7.981460e-03 
     8.5                3.385687e-03 2.340078e-03 4.080141e-03 2.422004e-03 6.304681e-03 3.637712e-06 1.187857e-03 3.385767e-03 3.388403e-03 1.010755e-02 9.462603e-03 9.584460e-03 
     9.5                3.803480e-03 2.597494e-03 4.998044e-03 2.601590e-03 7.394516e-03 3.979819e-06 1.413036e-03 3.862546e-03 3.862958e-03 1.179870e-02 1.085129e-02 1.097457e-02 
    10.5                4.138486e-03 2.900357e-03 5.935372e-03 2.709307e-03 8.428965e-03 4.295818e-06 1.642547e-03 4.320154e-03 4.308094e-03 1.340833e-02 1.216782e-02 1.229714e-02 
    11.5                4.508683e-03 3.126386e-03 7.059299e-03 2.807705e-03 9.637770e-03 4.589142e-06 1.885994e-03 4.789638e-03 4.763829e-03 1.526236e-02 1.359660e-02 1.373417e-02 
    12.5                4.775949e-03 3.299706e-03 7.946449e-03 2.803331e-03 1.051548e-02 4.729842e-06 2.111240e-03 5.118261e-03 5.086227e-03 1.661878e-02 1.462681e-02 1.476845e-02 
    13.5                4.935092e-03 3.334481e-03 8.758221e-03 2.728809e-03 1.126734e-02 4.635751e-06 2.234634e-03 5.249171e-03 5.216694e-03 1.769402e-02 1.539394e-02 1.552409e-02 
    14.5                4.836181e-03 3.455251e-03 9.215791e-03 2.657678e-03 1.166210e-02 4.528162e-06 2.305094e-03 5.303418e-03 5.265859e-03 1.825811e-02 1.573649e-02 1.586111e-02 
    15.5                4.989479e-03 3.517375e-03 1.008272e-02 2.576140e-03 1.244245e-02 4.541604e-06 2.481244e-03 5.417666e-03 5.380935e-03 1.942454e-02 1.653095e-02 1.666126e-02 
    16.5                4.945196e-03 3.567542e-03 1.032293e-02 2.522767e-03 1.262012e-02 4.557368e-06 2.519559e-03 5.434770e-03 5.398341e-03 1.969251e-02 1.667447e-02 1.681403e-02 
    17.5                4.960437e-03 3.578989e-03 1.068890e-02 2.433150e-03 1.289799e-02 4.480384e-06 2.604179e-03 5.401517e-03 5.365721e-03 2.010936e-02 1.691864e-02 1.705775e-02 
    18.5                4.925733e-03 3.641610e-03 1.107163e-02 2.338492e-03 1.319277e-02 4.369723e-06 2.684011e-03 5.361871e-03 5.325173e-03 2.054059e-02 1.717183e-02 1.730556e-02 
    19.5                4.884621e-03 3.623226e-03 1.117904e-02 2.272430e-03 1.322873e-02 4.327416e-06 2.734423e-03 5.250804e-03 5.211858e-03 2.061872e-02 1.712939e-02 1.726988e-02 
    20.5                4.808095e-03 3.566814e-03 1.112636e-02 2.093847e-03 1.300398e-02 4.162011e-06 2.754969e-03 5.060126e-03 5.025515e-03 2.027483e-02 1.682318e-02 1.696146e-02 
    21.5                4.656361e-03 3.616638e-03 1.124560e-02 2.012580e-03 1.303716e-02 4.105834e-06 2.790300e-03 4.921006e-03 4.886997e-03 2.033934e-02 1.676536e-02 1.691013e-02 
    22.5                4.721372e-03 3.540116e-03 1.147040e-02 1.921765e-03 1.317517e-02 4.004189e-06 2.869354e-03 4.795510e-03 4.761644e-03 2.056048e-02 1.685824e-02 1.700005e-02 
    23.5                4.499351e-03 3.398890e-03 1.087864e-02 1.776061e-03 1.245211e-02 3.736270e-06 2.740287e-03 4.489043e-03 4.458658e-03 1.944119e-02 1.596847e-02 1.610088e-02 
    24.5                4.242840e-03 3.315369e-03 1.044668e-02 1.658364e-03 1.190553e-02 3.599737e-06 2.677983e-03 4.223666e-03 4.194304e-03 1.862698e-02 1.525096e-02 1.538284e-02 
    25.5                4.145461e-03 3.228115e-03 1.023660e-02 1.553653e-03 1.160198e-02 3.364652e-06 2.643703e-03 3.993001e-03 3.964868e-03 1.814941e-02 1.484104e-02 1.496658e-02 
    26.5                3.969890e-03 3.201179e-03 9.865648e-03 1.481653e-03 1.116247e-02 3.257943e-06 2.612987e-03 3.784566e-03 3.756254e-03 1.751467e-02 1.431141e-02 1.443566e-02 
    27.5                3.904996e-03 3.073931e-03 9.486265e-03 1.386887e-03 1.068701e-02 3.200010e-06 2.585619e-03 3.577411e-03 3.551069e-03 1.683568e-02 1.375445e-02 1.388150e-02 
    28.5                3.726892e-03 3.003755e-03 9.099314e-03 1.267627e-03 1.018545e-02 3.055725e-06 2.535932e-03 3.311359e-03 3.287104e-03 1.609508e-02 1.314796e-02 1.327386e-02 
    29.5                3.587964e-03 2.789699e-03 8.632299e-03 1.175258e-03 9.608785e-03 3.183740e-06 2.446744e-03 3.006033e-03 2.982392e-03 1.525003e-02 1.241689e-02 1.255914e-02 
    30.5                3.323330e-03 2.718054e-03 8.234304e-03 1.077840e-03 9.128979e-03 2.932556e-06 2.326608e-03 2.786268e-03 2.763792e-03 1.448186e-02 1.177073e-02 1.190106e-02 
    31.5                3.212915e-03 2.707191e-03 8.007925e-03 9.918811e-04 8.813654e-03 2.912029e-06 2.349718e-03 2.619179e-03 2.598879e-03 1.405987e-02 1.140699e-02 1.154252e-02 
    32.5                3.128180e-03 2.601714e-03 7.516043e-03 9.597229e-04 8.270121e-03 3.106301e-06 2.277931e-03 2.407560e-03 2.386544e-03 1.329212e-02 1.081476e-02 1.096789e-02 
    33.5                3.033461e-03 2.661564e-03 7.263226e-03 9.270689e-04 7.983447e-03 3.100853e-06 2.290493e-03 2.226947e-03 2.205644e-03 1.291743e-02 1.054698e-02 1.070269e-02 
    34.5                3.093925e-03 2.666409e-03 7.307426e-03 9.404765e-04 8.005123e-03 3.548127e-06 2.351001e-03 2.145296e-03 2.122955e-03 1.304076e-02 1.061460e-02 1.079980e-02 
    35.5                2.981879e-03 2.576544e-03 6.672373e-03 9.634161e-04 7.378832e-03 3.660207e-06 2.228416e-03 2.008856e-03 1.985157e-03 1.214596e-02 9.961473e-03 1.015689e-02 
    36.5                2.888116e-03 2.631757e-03 6.497646e-03 9.837130e-04 7.199963e-03 3.950058e-06 2.231697e-03 1.879411e-03 1.854359e-03 1.194103e-02 9.795188e-03 1.001288e-02 
    37.5                3.018109e-03 2.719281e-03 6.518168e-03 1.104937e-03 7.271363e-03 4.881971e-06 2.266735e-03 1.827856e-03 1.798647e-03 1.216945e-02 1.002675e-02 1.030044e-02 
    38.5                2.940262e-03 2.932538e-03 6.207522e-03 1.352460e-03 7.149074e-03 5.651170e-06 2.208775e-03 1.766246e-03 1.727574e-03 1.211399e-02 1.004802e-02 1.036181e-02 
    39.5                3.186169e-03 2.825561e-03 6.032193e-03 1.535129e-03 7.120065e-03 6.104652e-06 2.195720e-03 1.720314e-03 1.675411e-03 1.217549e-02 1.015030e-02 1.048546e-02 
    40.5                3.132210e-03 2.918415e-03 5.885844e-03 1.535063e-03 6.978449e-03 6.177189e-06 2.169613e-03 1.653303e-03 1.608780e-03 1.197502e-02 1.007353e-02 1.040104e-02 
    41.5                3.172248e-03 3.234283e-03 5.715079e-03 1.855951e-03 7.088374e-03 6.780975e-06 2.153349e-03 1.643485e-03 1.588370e-03 1.226737e-02 1.044838e-02 1.079865e-02 
    42.5                3.465661e-03 3.146031e-03 5.338363e-03 2.188465e-03 7.021029e-03 7.175255e-06 2.056801e-03 1.644004e-03 1.578487e-03 1.224417e-02 1.058411e-02 1.094291e-02 
    43.5                3.371555e-03 3.334160e-03 4.911527e-03 2.326685e-03 6.777396e-03 6.711465e-06 1.892128e-03 1.594985e-03 1.524662e-03 1.180277e-02 1.047781e-02 1.078924e-02 
    44.5                3.534360e-03 3.670253e-03 4.906875e-03 2.743786e-03 7.172320e-03 7.118169e-06 1.917450e-03 1.650863e-03 1.567884e-03 1.251410e-02 1.119576e-02 1.151043e-02 
    45.5                3.907179e-03 3.654372e-03 4.761276e-03 3.014039e-03 7.255087e-03 7.725622e-06 1.878636e-03 1.659631e-03 1.571053e-03 1.273203e-02 1.155900e-02 1.189998e-02 
    46.5                3.829488e-03 3.749085e-03 4.571456e-03 3.122849e-03 7.168133e-03 7.908604e-06 1.842831e-03 1.624720e-03 1.534616e-03 1.260259e-02 1.151764e-02 1.186708e-02 
    47.5                3.974020e-03 4.006773e-03 4.426140e-03 3.410632e-03 7.298648e-03 8.169069e-06 1.805301e-03 1.648059e-03 1.551310e-03 1.280306e-02 1.195210e-02 1.230371e-02 
    48.5                4.069847e-03 4.398354e-03 4.115057e-03 3.980847e-03 7.564906e-03 8.334485e-06 1.674782e-03 1.703705e-03 1.592886e-03 1.318938e-02 1.256008e-02 1.289685e-02 
    49.5                4.515210e-03 4.835738e-03 4.050062e-03 4.506349e-03 8.013926e-03 8.853362e-06 1.665725e-03 1.770764e-03 1.646238e-03 1.393061e-02 1.363190e-02 1.396201e-02 
    50.5                4.810626e-03 5.547119e-03 3.877333e-03 5.331704e-03 8.655933e-03 9.356372e-06 1.601588e-03 1.865474e-03 1.720231e-03 1.495204e-02 1.496353e-02 1.528487e-02 
    51.5                5.500675e-03 6.108315e-03 3.653273e-03 6.421537e-03 9.525531e-03 9.765106e-06 1.513502e-03 1.962724e-03 1.791439e-03 1.625306e-02 1.666055e-02 1.696146e-02 
    52.5                6.201790e-03 6.111332e-03 3.337617e-03 7.027982e-03 9.837098e-03 9.818665e-06 1.388520e-03 2.014697e-03 1.831627e-03 1.662369e-02 1.748335e-02 1.776151e-02 
    53.5                6.318180e-03 6.198829e-03 2.997115e-03 7.299238e-03 9.802437e-03 9.569621e-06 1.250801e-03 2.030919e-03 1.845446e-03 1.643830e-02 1.763768e-02 1.788635e-02 
    54.5                6.436401e-03 5.841687e-03 2.663917e-03 7.350892e-03 9.564752e-03 9.047546e-06 1.108537e-03 2.008109e-03 1.825072e-03 1.594275e-02 1.727486e-02 1.749060e-02 
    55.5                6.368041e-03 5.889373e-03 2.455903e-03 7.263140e-03 9.290740e-03 8.852669e-06 1.021226e-03 1.975366e-03 1.798152e-03 1.543866e-02 1.705132e-02 1.724871e-02 
    56.5                6.231517e-03 5.616432e-03 2.201025e-03 7.225905e-03 9.031068e-03 8.370963e-06 9.180922e-04 1.927020e-03 1.754232e-03 1.495156e-02 1.653152e-02 1.670721e-02 
    57.5                5.998964e-03 5.126076e-03 1.921641e-03 6.795421e-03 8.369066e-03 7.654650e-06 7.977634e-04 1.825480e-03 1.666709e-03 1.379047e-02 1.544720e-02 1.559321e-02 
    58.5                5.517035e-03 4.916447e-03 1.637891e-03 6.441977e-03 7.788120e-03 6.795069e-06 6.750758e-04 1.687731e-03 1.540422e-03 1.274386e-02 1.443671e-02 1.454756e-02 
    59.5                5.215577e-03 4.687254e-03 1.411154e-03 6.208940e-03 7.362909e-03 6.242062e-06 5.821960e-04 1.550976e-03 1.411690e-03 1.198886e-02 1.368531e-02 1.377582e-02 
    60.5                5.032757e-03 4.258048e-03 1.232278e-03 5.839128e-03 6.844483e-03 5.721060e-06 5.085396e-04 1.386578e-03 1.258396e-03 1.108262e-02 1.279468e-02 1.286921e-02 
    61.5                4.560449e-03 3.708447e-03 9.785687e-04 5.341858e-03 6.134970e-03 4.881227e-06 4.042395e-04 1.214993e-03 1.100410e-03 9.850953e-03 1.142652e-02 1.148383e-02 
    62.5                4.207817e-03 3.037861e-03 7.943544e-04 4.589055e-03 5.231803e-03 4.219780e-06 3.284875e-04 1.035577e-03 9.393896e-04 8.356248e-03 9.898548e-03 9.941780e-03 
    63.5                3.437212e-03 2.475413e-03 5.862288e-04 3.779522e-03 4.248941e-03 3.390465e-06 2.434966e-04 8.504570e-04 7.731449e-04 6.754063e-03 8.066354e-03 8.098029e-03 
    64.5                2.831231e-03 1.980631e-03 4.514174e-04 3.077611e-03 3.438835e-03 2.723391e-06 1.875984e-04 6.740739e-04 6.123485e-04 5.444003e-03 6.551432e-03 6.574210e-03 
    65.5                2.249771e-03 1.511765e-03 3.213543e-04 2.444161e-03 2.698404e-03 2.088464e-06 1.344523e-04 5.092138e-04 4.613295e-04 4.245613e-03 5.129714e-03 5.145857e-03 
    66.5                1.802884e-03 1.074417e-03 2.233378e-04 1.863572e-03 2.038731e-03 1.575028e-06 9.395296e-05 3.656956e-04 3.299895e-04 3.189120e-03 3.904419e-03 3.915133e-03 
    67.5                1.323159e-03 6.873879e-04 1.404388e-04 1.294056e-03 1.403014e-03 1.089386e-06 5.951045e-05 2.383368e-04 2.141746e-04 2.180039e-03 2.713143e-03 2.719674e-03 
    68.5                8.896349e-04 3.850841e-04 7.774929e-05 8.215575e-04 8.812612e-04 6.799056e-07 3.328633e-05 1.376889e-04 1.226736e-04 1.357158e-03 1.714185e-03 1.717504e-03 
    69.5                5.448304e-04 1.700129e-04 3.769236e-05 4.513262e-04 4.797405e-04 3.776429e-07 1.644294e-05 6.742107e-05 5.939267e-05 7.326396e-04 9.499517e-04 9.514523e-04 
    70.5                2.730572e-04 4.328484e-05 1.426969e-05 1.907978e-04 2.014045e-04 1.722785e-07 6.326912e-06 2.570440e-05 2.240614e-05 3.048802e-04 4.127979e-04 4.132793e-04 
    71.5                9.898923e-05 5.675416e-06 4.031085e-06 5.148378e-05 5.437618e-05 6.264972e-08 1.857888e-06 6.527801e-06 5.669455e-06 8.208114e-05 1.277851e-04 1.279149e-04 
    72.5                1.737040e-05 1.185467e-07 5.001588e-07 7.102583e-06 7.442517e-06 1.205201e-08 2.522479e-07 9.172592e-07 8.058382e-07 1.113351e-05 2.029387e-05 2.030551e-05 
    73.5                1.335184e-06 0.000000e+00 1.535417e-08 3.533194e-07 3.617017e-07 1.099096e-09 1.109431e-08 3.916363e-08 3.384732e-08 5.317999e-07 1.417236e-06 1.417330e-06 
    74.5                0.000000e+00 0.000000e+00 0.000000e+00 0.000000e+00 0.000000e+00 0.000000e+00 0.000000e+00 0.000000e+00 0.000000e+00 0.000000e+00 0.000000e+00 0.000000e+00 
    75.5                0.000000e+00 0.000000e+00 0.000000e+00 0.000000e+00 0.000000e+00 0.000000e+00 0.000000e+00 0.000000e+00 0.000000e+00 0.000000e+00 0.000000e+00 0.000000e+00 
    76.5                0.000000e+00 0.000000e+00 0.000000e+00 0.000000e+00 0.000000e+00 0.000000e+00 0.000000e+00 0.000000e+00 0.000000e+00 0.000000e+00 0.000000e+00 0.000000e+00 
    77.5                0.000000e+00 0.000000e+00 0.000000e+00 0.000000e+00 0.000000e+00 0.000000e+00 0.000000e+00 0.000000e+00 0.000000e+00 0.000000e+00 0.000000e+00 0.000000e+00 
    78.5                0.000000e+00 0.000000e+00 0.000000e+00 0.000000e+00 0.000000e+00 0.000000e+00 0.000000e+00 0.000000e+00 0.000000e+00 0.000000e+00 0.000000e+00 0.000000e+00 
    79.5                0.000000e+00 0.000000e+00 0.000000e+00 0.000000e+00 0.000000e+00 0.000000e+00 0.000000e+00 0.000000e+00 0.000000e+00 0.000000e+00 0.000000e+00 0.000000e+00 


