# 80 rows of flux data
# 12 columns of flux data
# 
# total cross-sectional flux  2.154439e+00 /m^2/yr
#
#                             +x ram      -x wake      +y port -y starboard    +z zenith     -z nadir        Earth          Sun     anti-Sun      rot (x)      rot (y)      rot (z) 
# average speed (km/s)         24.67        23.83        22.34        18.47        24.26        23.66        22.47        24.68        24.68        23.63        24.27        23.74 
# total flux (#/m2/yr)  7.166748e-01 6.113428e-01 3.422709e-01 1.449445e-01 1.271310e+00 5.007721e-04 5.880046e-03 9.480774e-01 9.345384e-01 1.445209e+00 2.049312e+00 1.505216e+00 
# velocity (km/s)
     0.5                0.000000e+00 0.000000e+00 0.000000e+00 0.000000e+00 0.000000e+00 0.000000e+00 0.000000e+00 0.000000e+00 0.000000e+00 0.000000e+00 0.000000e+00 0.000000e+00 
     1.5                0.000000e+00 0.000000e+00 0.000000e+00 0.000000e+00 0.000000e+00 0.000000e+00 0.000000e+00 0.000000e+00 0.000000e+00 0.000000e+00 0.000000e+00 0.000000e+00 
     2.5                0.000000e+00 5.086271e-06 4.303708e-07 3.883712e-07 2.437664e-06 1.355206e-09 1.728770e-08 2.147505e-06 1.279930e-07 2.756192e-06 5.878163e-06 5.212236e-06 
     3.5                3.145888e-06 1.180403e-04 2.780946e-05 1.797332e-05 1.029109e-04 4.402722e-08 6.083170e-07 5.808002e-05 2.104638e-05 1.218521e-04 1.769591e-04 1.359129e-04 
     4.5                1.194548e-04 5.417589e-04 1.892187e-04 1.214653e-04 6.039304e-04 2.519417e-07 3.354226e-06 2.961067e-04 1.675588e-04 7.364439e-04 9.972394e-04 7.786670e-04 
     5.5                5.671266e-04 1.471547e-03 7.012440e-04 4.585028e-04 2.035345e-03 7.810341e-07 1.101365e-05 9.667385e-04 7.127761e-04 2.543039e-03 3.214617e-03 2.530215e-03 
     6.5                1.900942e-03 2.760412e-03 1.637619e-03 1.078179e-03 4.549272e-03 1.850525e-06 2.501490e-05 2.183388e-03 1.836027e-03 5.747396e-03 7.262549e-03 5.827536e-03 
     7.5                3.555691e-03 4.902687e-03 3.037632e-03 2.054029e-03 8.106946e-03 3.488789e-06 4.788151e-05 3.958430e-03 3.632425e-03 1.042250e-02 1.306176e-02 1.068583e-02 
     8.5                6.019082e-03 7.291490e-03 4.836832e-03 3.209646e-03 1.301110e-02 5.449124e-06 7.439018e-05 6.349551e-03 6.208296e-03 1.662966e-02 2.075189e-02 1.680723e-02 
     9.5                9.194960e-03 9.287787e-03 6.829268e-03 4.552948e-03 1.815299e-02 7.649700e-06 1.052537e-04 9.287829e-03 9.290033e-03 2.329534e-02 2.888827e-02 2.350031e-02 
    10.5                1.243989e-02 1.129889e-02 8.821035e-03 6.046463e-03 2.268976e-02 1.015966e-05 1.417225e-04 1.272296e-02 1.269965e-02 2.956341e-02 3.661236e-02 3.037265e-02 
    11.5                1.468569e-02 1.296546e-02 1.047745e-02 7.271538e-03 2.672331e-02 1.202792e-05 1.734721e-04 1.613657e-02 1.604015e-02 3.504833e-02 4.288285e-02 3.575536e-02 
    12.5                1.686285e-02 1.422652e-02 1.158134e-02 8.081582e-03 2.966636e-02 1.378159e-05 2.020570e-04 1.918333e-02 1.905240e-02 3.898275e-02 4.791947e-02 4.004945e-02 
    13.5                1.814203e-02 1.615039e-02 1.248904e-02 8.595864e-03 3.261218e-02 1.514184e-05 2.230985e-04 2.213556e-02 2.196694e-02 4.255801e-02 5.275382e-02 4.386750e-02 
    14.5                1.978818e-02 1.782167e-02 1.326024e-02 8.804100e-03 3.605138e-02 1.634616e-05 2.373928e-04 2.527236e-02 2.504669e-02 4.621851e-02 5.808610e-02 4.745501e-02 
    15.5                2.149519e-02 1.936175e-02 1.374459e-02 8.701817e-03 3.919728e-02 1.744473e-05 2.471963e-04 2.825246e-02 2.798018e-02 4.922430e-02 6.313259e-02 5.057446e-02 
    16.5                2.332123e-02 2.074518e-02 1.421070e-02 8.544661e-03 4.220491e-02 1.839423e-05 2.527552e-04 3.106091e-02 3.073927e-02 5.205560e-02 6.802044e-02 5.366254e-02 
    17.5                2.465079e-02 2.208073e-02 1.441856e-02 8.173885e-03 4.468384e-02 1.900243e-05 2.526716e-04 3.356990e-02 3.320708e-02 5.411151e-02 7.207890e-02 5.590664e-02 
    18.5                2.585377e-02 2.304852e-02 1.446920e-02 7.682626e-03 4.693362e-02 1.939273e-05 2.504506e-04 3.577833e-02 3.538689e-02 5.577414e-02 7.556349e-02 5.757084e-02 
    19.5                2.701479e-02 2.377216e-02 1.450435e-02 7.295015e-03 4.861937e-02 1.980185e-05 2.493674e-04 3.755936e-02 3.714043e-02 5.701941e-02 7.837512e-02 5.906897e-02 
    20.5                2.762100e-02 2.443319e-02 1.431969e-02 6.792311e-03 4.974592e-02 2.005685e-05 2.470562e-04 3.879687e-02 3.835131e-02 5.759342e-02 8.026174e-02 5.981582e-02 
    21.5                2.806938e-02 2.543416e-02 1.420381e-02 6.217787e-03 5.117686e-02 2.010691e-05 2.382539e-04 4.014957e-02 3.966285e-02 5.840954e-02 8.252896e-02 6.070335e-02 
    22.5                2.895580e-02 2.605367e-02 1.420646e-02 5.879774e-03 5.281019e-02 2.040942e-05 2.385973e-04 4.154866e-02 4.102435e-02 5.967828e-02 8.500330e-02 6.193856e-02 
    23.5                2.971891e-02 2.628991e-02 1.398325e-02 5.345443e-03 5.364843e-02 2.054434e-05 2.331841e-04 4.235177e-02 4.179829e-02 5.995407e-02 8.644749e-02 6.241160e-02 
    24.5                2.987948e-02 2.641897e-02 1.363429e-02 4.834708e-03 5.389246e-02 2.045797e-05 2.273681e-04 4.260005e-02 4.201919e-02 5.966702e-02 8.686934e-02 6.221761e-02 
    25.5                2.992568e-02 2.629722e-02 1.319513e-02 4.278337e-03 5.388117e-02 2.019923e-05 2.192649e-04 4.254830e-02 4.194255e-02 5.908051e-02 8.679963e-02 6.164104e-02 
    26.5                2.979105e-02 2.563275e-02 1.263430e-02 3.767291e-03 5.314117e-02 1.976267e-05 2.114352e-04 4.191685e-02 4.130375e-02 5.781568e-02 8.558761e-02 6.036382e-02 
    27.5                2.917473e-02 2.498166e-02 1.197750e-02 3.275437e-03 5.174308e-02 1.926937e-05 2.025775e-04 4.081239e-02 4.020215e-02 5.590461e-02 8.348569e-02 5.862923e-02 
    28.5                2.823317e-02 2.413773e-02 1.132164e-02 2.835632e-03 5.018256e-02 1.847660e-05 1.922748e-04 3.941732e-02 3.881124e-02 5.388648e-02 8.084445e-02 5.643037e-02 
    29.5                2.735270e-02 2.301487e-02 1.061717e-02 2.413827e-03 4.822315e-02 1.770419e-05 1.816652e-04 3.776980e-02 3.717302e-02 5.147305e-02 7.771795e-02 5.401716e-02 
    30.5                2.609956e-02 2.176434e-02 9.843891e-03 2.015922e-03 4.580798e-02 1.676609e-05 1.702422e-04 3.574165e-02 3.516646e-02 4.863201e-02 7.384256e-02 5.110732e-02 
    31.5                2.470642e-02 2.030169e-02 9.030971e-03 1.635283e-03 4.307744e-02 1.570967e-05 1.573327e-04 3.344217e-02 3.289280e-02 4.548264e-02 6.943971e-02 4.785978e-02 
    32.5                2.310889e-02 1.861506e-02 8.190051e-03 1.305984e-03 3.995187e-02 1.450812e-05 1.437114e-04 3.081858e-02 3.030478e-02 4.198375e-02 6.438684e-02 4.421231e-02 
    33.5                2.132772e-02 1.671912e-02 7.319692e-03 1.030117e-03 3.638891e-02 1.320812e-05 1.295206e-04 2.789581e-02 2.742507e-02 3.808919e-02 5.867852e-02 4.020042e-02 
    34.5                1.926252e-02 1.482480e-02 6.440938e-03 7.968965e-04 3.257348e-02 1.182977e-05 1.149621e-04 2.480574e-02 2.438323e-02 3.397793e-02 5.254960e-02 3.592949e-02 
    35.5                1.715934e-02 1.293846e-02 5.586134e-03 5.971832e-04 2.872591e-02 1.044925e-05 1.004672e-04 2.172406e-02 2.135034e-02 2.986290e-02 4.637231e-02 3.164779e-02 
    36.5                1.503183e-02 1.110802e-02 4.772777e-03 4.279380e-04 2.495541e-02 9.039874e-06 8.594264e-05 1.871044e-02 1.838556e-02 2.585291e-02 4.027816e-02 2.742414e-02 
    37.5                1.299458e-02 9.333708e-03 4.014872e-03 2.995330e-04 2.129704e-02 7.713379e-06 7.246803e-05 1.582914e-02 1.555445e-02 2.199686e-02 3.438843e-02 2.337990e-02 
    38.5                1.099809e-02 7.586057e-03 3.301025e-03 2.013891e-04 1.773623e-02 6.402269e-06 5.967251e-05 1.305458e-02 1.282877e-02 1.826909e-02 2.863133e-02 1.942902e-02 
    39.5                9.086578e-03 5.896563e-03 2.627488e-03 1.301055e-04 1.426819e-02 5.171138e-06 4.776127e-05 1.040476e-02 1.022647e-02 1.466220e-02 2.305797e-02 1.564029e-02 
    40.5                7.201810e-03 4.357962e-03 2.001887e-03 7.932698e-05 1.096953e-02 3.999145e-06 3.672299e-05 7.926582e-03 7.793229e-03 1.124929e-02 1.776033e-02 1.205065e-02 
    41.5                5.448805e-03 3.074332e-03 1.455576e-03 4.586697e-05 8.034600e-03 2.973678e-06 2.697527e-05 5.760904e-03 5.666168e-03 8.224910e-03 1.305321e-02 8.873193e-03 
    42.5                3.914458e-03 2.052054e-03 1.010301e-03 2.506823e-05 5.610036e-03 2.079906e-06 1.872461e-05 3.982175e-03 3.918476e-03 5.734152e-03 9.126895e-03 6.206074e-03 
    43.5                2.692039e-03 1.228721e-03 6.579356e-04 1.281831e-05 3.670307e-03 1.370512e-06 1.222960e-05 2.580041e-03 2.541231e-03 3.746830e-03 5.985033e-03 4.074922e-03 
    44.5                1.709194e-03 6.388722e-04 3.857060e-04 6.067500e-06 2.158315e-03 8.280353e-07 7.403484e-06 1.512673e-03 1.492676e-03 2.201306e-03 3.553063e-03 2.436631e-03 
    45.5                9.544272e-04 2.647325e-04 1.948220e-04 2.511031e-06 1.092578e-03 4.395843e-07 3.935986e-06 7.665597e-04 7.580954e-04 1.113576e-03 1.822824e-03 1.262827e-03 
    46.5                4.457038e-04 7.761219e-05 7.868929e-05 8.997194e-07 4.416072e-04 1.983715e-07 1.781796e-06 3.160288e-04 3.138108e-04 4.499506e-04 7.610696e-04 5.401221e-04 
    47.5                1.537091e-04 1.514282e-05 2.315553e-05 2.620616e-07 1.298762e-04 6.845097e-08 6.236063e-07 9.665377e-05 9.662662e-05 1.323314e-04 2.359497e-04 1.734538e-04 
    48.5                3.714317e-05 1.356262e-06 4.669636e-06 5.187394e-08 2.616630e-05 1.707850e-08 1.503094e-07 2.064860e-05 2.080142e-05 2.666386e-05 5.111179e-05 3.931110e-05 
    49.5                5.168236e-06 1.187206e-08 5.057754e-07 6.739511e-09 2.823799e-06 2.348654e-09 2.190127e-08 2.522807e-06 2.571320e-06 2.879724e-06 6.326062e-06 5.240503e-06 
    50.5                1.500736e-07 0.000000e+00 9.817556e-09 2.218420e-10 5.424798e-08 9.503814e-11 7.419430e-10 6.480420e-08 6.658188e-08 5.548623e-08 1.641421e-07 1.506056e-07 
    51.5                0.000000e+00 0.000000e+00 0.000000e+00 0.000000e+00 0.000000e+00 0.000000e+00 0.000000e+00 0.000000e+00 0.000000e+00 0.000000e+00 0.000000e+00 0.000000e+00 
    52.5                0.000000e+00 0.000000e+00 0.000000e+00 0.000000e+00 0.000000e+00 0.000000e+00 0.000000e+00 0.000000e+00 0.000000e+00 0.000000e+00 0.000000e+00 0.000000e+00 
    53.5                0.000000e+00 0.000000e+00 0.000000e+00 0.000000e+00 0.000000e+00 0.000000e+00 0.000000e+00 0.000000e+00 0.000000e+00 0.000000e+00 0.000000e+00 0.000000e+00 
    54.5                0.000000e+00 0.000000e+00 0.000000e+00 0.000000e+00 0.000000e+00 0.000000e+00 0.000000e+00 0.000000e+00 0.000000e+00 0.000000e+00 0.000000e+00 0.000000e+00 
    55.5                0.000000e+00 0.000000e+00 0.000000e+00 0.000000e+00 0.000000e+00 0.000000e+00 0.000000e+00 0.000000e+00 0.000000e+00 0.000000e+00 0.000000e+00 0.000000e+00 
    56.5                0.000000e+00 0.000000e+00 0.000000e+00 0.000000e+00 0.000000e+00 0.000000e+00 0.000000e+00 0.000000e+00 0.000000e+00 0.000000e+00 0.000000e+00 0.000000e+00 
    57.5                0.000000e+00 0.000000e+00 0.000000e+00 0.000000e+00 0.000000e+00 0.000000e+00 0.000000e+00 0.000000e+00 0.000000e+00 0.000000e+00 0.000000e+00 0.000000e+00 
    58.5                0.000000e+00 0.000000e+00 0.000000e+00 0.000000e+00 0.000000e+00 0.000000e+00 0.000000e+00 0.000000e+00 0.000000e+00 0.000000e+00 0.000000e+00 0.000000e+00 
    59.5                0.000000e+00 0.000000e+00 0.000000e+00 0.000000e+00 0.000000e+00 0.000000e+00 0.000000e+00 0.000000e+00 0.000000e+00 0.000000e+00 0.000000e+00 0.000000e+00 
    60.5                0.000000e+00 0.000000e+00 0.000000e+00 0.000000e+00 0.000000e+00 0.000000e+00 0.000000e+00 0.000000e+00 0.000000e+00 0.000000e+00 0.000000e+00 0.000000e+00 
    61.5                0.000000e+00 0.000000e+00 0.000000e+00 0.000000e+00 0.000000e+00 0.000000e+00 0.000000e+00 0.000000e+00 0.000000e+00 0.000000e+00 0.000000e+00 0.000000e+00 
    62.5                0.000000e+00 0.000000e+00 0.000000e+00 0.000000e+00 0.000000e+00 0.000000e+00 0.000000e+00 0.000000e+00 0.000000e+00 0.000000e+00 0.000000e+00 0.000000e+00 
    63.5                0.000000e+00 0.000000e+00 0.000000e+00 0.000000e+00 0.000000e+00 0.000000e+00 0.000000e+00 0.000000e+00 0.000000e+00 0.000000e+00 0.000000e+00 0.000000e+00 
    64.5                0.000000e+00 0.000000e+00 0.000000e+00 0.000000e+00 0.000000e+00 0.000000e+00 0.000000e+00 0.000000e+00 0.000000e+00 0.000000e+00 0.000000e+00 0.000000e+00 
    65.5                0.000000e+00 0.000000e+00 0.000000e+00 0.000000e+00 0.000000e+00 0.000000e+00 0.000000e+00 0.000000e+00 0.000000e+00 0.000000e+00 0.000000e+00 0.000000e+00 
    66.5                0.000000e+00 0.000000e+00 0.000000e+00 0.000000e+00 0.000000e+00 0.000000e+00 0.000000e+00 0.000000e+00 0.000000e+00 0.000000e+00 0.000000e+00 0.000000e+00 
    67.5                0.000000e+00 0.000000e+00 0.000000e+00 0.000000e+00 0.000000e+00 0.000000e+00 0.000000e+00 0.000000e+00 0.000000e+00 0.000000e+00 0.000000e+00 0.000000e+00 
    68.5                0.000000e+00 0.000000e+00 0.000000e+00 0.000000e+00 0.000000e+00 0.000000e+00 0.000000e+00 0.000000e+00 0.000000e+00 0.000000e+00 0.000000e+00 0.000000e+00 
    69.5                0.000000e+00 0.000000e+00 0.000000e+00 0.000000e+00 0.000000e+00 0.000000e+00 0.000000e+00 0.000000e+00 0.000000e+00 0.000000e+00 0.000000e+00 0.000000e+00 
    70.5                0.000000e+00 0.000000e+00 0.000000e+00 0.000000e+00 0.000000e+00 0.000000e+00 0.000000e+00 0.000000e+00 0.000000e+00 0.000000e+00 0.000000e+00 0.000000e+00 
    71.5                0.000000e+00 0.000000e+00 0.000000e+00 0.000000e+00 0.000000e+00 0.000000e+00 0.000000e+00 0.000000e+00 0.000000e+00 0.000000e+00 0.000000e+00 0.000000e+00 
    72.5                0.000000e+00 0.000000e+00 0.000000e+00 0.000000e+00 0.000000e+00 0.000000e+00 0.000000e+00 0.000000e+00 0.000000e+00 0.000000e+00 0.000000e+00 0.000000e+00 
    73.5                0.000000e+00 0.000000e+00 0.000000e+00 0.000000e+00 0.000000e+00 0.000000e+00 0.000000e+00 0.000000e+00 0.000000e+00 0.000000e+00 0.000000e+00 0.000000e+00 
    74.5                0.000000e+00 0.000000e+00 0.000000e+00 0.000000e+00 0.000000e+00 0.000000e+00 0.000000e+00 0.000000e+00 0.000000e+00 0.000000e+00 0.000000e+00 0.000000e+00 
    75.5                0.000000e+00 0.000000e+00 0.000000e+00 0.000000e+00 0.000000e+00 0.000000e+00 0.000000e+00 0.000000e+00 0.000000e+00 0.000000e+00 0.000000e+00 0.000000e+00 
    76.5                0.000000e+00 0.000000e+00 0.000000e+00 0.000000e+00 0.000000e+00 0.000000e+00 0.000000e+00 0.000000e+00 0.000000e+00 0.000000e+00 0.000000e+00 0.000000e+00 
    77.5                0.000000e+00 0.000000e+00 0.000000e+00 0.000000e+00 0.000000e+00 0.000000e+00 0.000000e+00 0.000000e+00 0.000000e+00 0.000000e+00 0.000000e+00 0.000000e+00 
    78.5                0.000000e+00 0.000000e+00 0.000000e+00 0.000000e+00 0.000000e+00 0.000000e+00 0.000000e+00 0.000000e+00 0.000000e+00 0.000000e+00 0.000000e+00 0.000000e+00 
    79.5                0.000000e+00 0.000000e+00 0.000000e+00 0.000000e+00 0.000000e+00 0.000000e+00 0.000000e+00 0.000000e+00 0.000000e+00 0.000000e+00 0.000000e+00 0.000000e+00 


