# 80 rows of flux data
# 12 columns of flux data
# 
# total cross-sectional flux  2.205389e+00 /m^2/yr
#
#                       +x vernal eq.           -x           +y           -y +z eclip. N. -z eclip. S.        Earth          Sun     anti-Sun      rot (x)      rot (y)      rot (z) 
# average speed (km/s)         23.93        24.55        24.17        24.30        22.83        19.27        24.68        24.64        24.65        23.62        23.63        24.24 
# total flux (#/m2/yr)  6.583438e-01 6.859265e-01 6.693354e-01 6.754090e-01 1.056638e-01 3.365297e-01 1.202321e+00 9.575893e-01 9.695057e-01 1.499298e+00 1.498925e+00 2.111936e+00 
# velocity (km/s)
     0.5                0.000000e+00 0.000000e+00 0.000000e+00 0.000000e+00 0.000000e+00 0.000000e+00 0.000000e+00 0.000000e+00 0.000000e+00 0.000000e+00 0.000000e+00 0.000000e+00 
     1.5                0.000000e+00 0.000000e+00 0.000000e+00 0.000000e+00 0.000000e+00 0.000000e+00 0.000000e+00 0.000000e+00 0.000000e+00 0.000000e+00 0.000000e+00 0.000000e+00 
     2.5                7.017683e-07 1.053757e-06 2.937498e-06 2.911313e-06 1.644512e-08 2.131793e-06 1.687922e-06 4.052612e-07 1.395941e-06 6.314604e-06 2.967019e-06 6.268868e-06 
     3.5                7.469956e-05 4.983996e-05 6.628480e-05 6.402405e-05 4.694673e-06 5.755308e-05 9.271441e-05 3.176260e-05 5.625482e-05 1.533563e-04 1.492496e-04 2.003712e-04 
     4.5                4.646282e-04 2.289365e-04 3.625863e-04 3.369016e-04 4.285241e-05 3.159760e-04 5.426269e-04 2.096914e-04 2.919619e-04 8.464218e-04 8.390379e-04 1.092071e-03 
     5.5                1.337995e-03 8.396873e-04 1.156980e-03 1.084617e-03 1.807128e-04 1.097892e-03 1.810049e-03 8.217322e-04 9.808004e-04 2.786382e-03 2.729941e-03 3.470951e-03 
     6.5                2.769770e-03 2.130195e-03 2.532160e-03 2.404664e-03 4.150234e-04 2.506172e-03 3.957276e-03 2.038614e-03 2.227857e-03 6.195395e-03 6.157514e-03 7.727287e-03 
     7.5                4.682139e-03 4.043698e-03 4.419711e-03 4.306581e-03 7.329805e-04 4.594873e-03 6.947813e-03 3.893499e-03 4.045064e-03 1.105401e-02 1.107131e-02 1.369963e-02 
     8.5                7.230715e-03 6.572599e-03 6.977352e-03 6.855908e-03 1.213047e-03 7.130606e-03 1.119665e-02 6.517703e-03 6.563367e-03 1.743849e-02 1.742415e-02 2.170401e-02 
     9.5                9.906918e-03 9.277466e-03 9.661062e-03 9.535851e-03 1.734542e-03 9.977621e-03 1.558095e-02 9.651546e-03 9.647219e-03 2.428433e-02 2.429834e-02 3.014321e-02 
    10.5                1.235001e-02 1.180610e-02 1.213239e-02 1.202765e-02 2.082448e-03 1.306751e-02 1.914314e-02 1.308808e-02 1.318078e-02 3.088151e-02 3.086965e-02 3.795214e-02 
    11.5                1.430967e-02 1.385921e-02 1.414685e-02 1.404646e-02 2.397457e-03 1.552122e-02 2.247653e-02 1.649745e-02 1.667514e-02 3.628268e-02 3.626616e-02 4.427626e-02 
    12.5                1.576853e-02 1.565770e-02 1.572982e-02 1.570473e-02 2.670458e-03 1.702398e-02 2.509919e-02 1.955868e-02 1.974740e-02 4.034811e-02 4.036016e-02 4.937237e-02 
    13.5                1.751554e-02 1.708146e-02 1.733237e-02 1.724994e-02 2.963731e-03 1.805133e-02 2.784157e-02 2.254232e-02 2.272930e-02 4.405679e-02 4.406349e-02 5.432922e-02 
    14.5                1.931778e-02 1.876699e-02 1.914817e-02 1.903668e-02 3.369750e-03 1.855195e-02 3.126824e-02 2.571933e-02 2.594300e-02 4.782761e-02 4.773575e-02 5.990289e-02 
    15.5                2.087015e-02 2.053632e-02 2.078323e-02 2.072442e-02 3.751901e-03 1.842977e-02 3.456826e-02 2.873839e-02 2.898995e-02 5.094051e-02 5.083969e-02 6.512761e-02 
    16.5                2.247222e-02 2.218507e-02 2.237743e-02 2.231956e-02 4.049951e-03 1.830999e-02 3.767995e-02 3.156651e-02 3.184028e-02 5.390055e-02 5.387404e-02 7.017714e-02 
    17.5                2.370053e-02 2.363363e-02 2.368016e-02 2.367332e-02 4.316551e-03 1.774211e-02 4.040737e-02 3.410108e-02 3.439391e-02 5.607912e-02 5.606065e-02 7.436190e-02 
    18.5                2.473278e-02 2.486143e-02 2.484231e-02 2.487298e-02 4.579446e-03 1.690906e-02 4.298752e-02 3.634913e-02 3.665934e-02 5.783623e-02 5.771837e-02 7.799693e-02 
    19.5                2.553408e-02 2.598079e-02 2.571843e-02 2.581171e-02 4.751088e-03 1.625397e-02 4.494366e-02 3.815565e-02 3.848186e-02 5.919395e-02 5.918452e-02 8.092781e-02 
    20.5                2.613688e-02 2.662862e-02 2.630511e-02 2.640988e-02 4.824814e-03 1.529740e-02 4.641554e-02 3.937776e-02 3.972910e-02 5.978605e-02 5.983252e-02 8.283993e-02 
    21.5                2.700058e-02 2.720456e-02 2.708478e-02 2.713601e-02 4.897020e-03 1.434875e-02 4.816447e-02 4.070595e-02 4.109253e-02 6.065587e-02 6.063572e-02 8.515424e-02 
    22.5                2.774055e-02 2.806199e-02 2.789275e-02 2.796399e-02 5.023820e-03 1.371908e-02 5.008575e-02 4.209546e-02 4.251713e-02 6.191304e-02 6.186418e-02 8.769741e-02 
    23.5                2.805601e-02 2.870096e-02 2.831146e-02 2.845087e-02 5.066340e-03 1.275459e-02 5.126924e-02 4.286783e-02 4.332162e-02 6.222326e-02 6.221958e-02 8.915888e-02 
    24.5                2.816617e-02 2.883092e-02 2.843705e-02 2.858003e-02 5.000623e-03 1.177248e-02 5.184434e-02 4.306243e-02 4.355078e-02 6.192376e-02 6.190674e-02 8.954589e-02 
    25.5                2.803082e-02 2.888159e-02 2.838540e-02 2.856957e-02 4.878400e-03 1.070097e-02 5.217985e-02 4.295601e-02 4.347644e-02 6.128487e-02 6.124160e-02 8.943187e-02 
    26.5                2.747707e-02 2.863101e-02 2.793869e-02 2.818099e-02 4.672738e-03 9.656402e-03 5.175778e-02 4.227534e-02 4.281251e-02 5.991608e-02 5.990738e-02 8.814286e-02 
    27.5                2.669742e-02 2.800774e-02 2.721890e-02 2.749695e-02 4.408570e-03 8.645002e-03 5.062069e-02 4.112290e-02 4.166893e-02 5.801696e-02 5.800654e-02 8.593906e-02 
    28.5                2.582802e-02 2.711750e-02 2.634180e-02 2.661635e-02 4.126117e-03 7.694768e-03 4.931209e-02 3.967406e-02 4.022419e-02 5.581673e-02 5.580371e-02 8.317699e-02 
    29.5                2.471157e-02 2.616758e-02 2.528994e-02 2.559795e-02 3.829517e-03 6.769676e-03 4.757369e-02 3.797939e-02 3.852861e-02 5.332405e-02 5.331469e-02 7.992776e-02 
    30.5                2.334925e-02 2.496848e-02 2.398501e-02 2.432996e-02 3.481281e-03 5.874650e-03 4.534823e-02 3.590151e-02 3.643979e-02 5.035230e-02 5.035473e-02 7.589503e-02 
    31.5                2.187994e-02 2.353124e-02 2.253924e-02 2.288857e-02 3.101437e-03 5.000274e-03 4.278077e-02 3.356522e-02 3.408440e-02 4.708884e-02 4.707373e-02 7.134477e-02 
    32.5                2.013942e-02 2.195550e-02 2.085705e-02 2.124393e-02 2.706984e-03 4.202390e-03 3.978092e-02 3.090783e-02 3.139988e-02 4.343824e-02 4.342985e-02 6.612666e-02 
    33.5                1.820497e-02 2.014786e-02 1.897460e-02 1.938660e-02 2.331317e-03 3.498555e-03 3.631130e-02 2.796292e-02 2.841649e-02 3.942783e-02 3.941919e-02 6.025086e-02 
    34.5                1.616127e-02 1.818007e-02 1.695272e-02 1.738268e-02 1.965656e-03 2.865944e-03 3.255856e-02 2.485076e-02 2.526091e-02 3.517275e-02 3.517735e-02 5.393873e-02 
    35.5                1.419480e-02 1.610607e-02 1.494269e-02 1.534961e-02 1.612311e-03 2.285558e-03 2.876268e-02 2.175426e-02 2.211994e-02 3.092666e-02 3.093422e-02 4.758959e-02 
    36.5                1.220476e-02 1.411852e-02 1.294255e-02 1.335271e-02 1.284773e-03 1.768828e-03 2.502560e-02 1.872878e-02 1.904653e-02 2.675661e-02 2.678254e-02 4.132604e-02 
    37.5                1.031185e-02 1.214478e-02 1.103486e-02 1.142626e-02 1.000282e-03 1.342100e-03 2.138569e-02 1.584014e-02 1.611329e-02 2.278854e-02 2.278287e-02 3.527807e-02 
    38.5                8.472307e-03 1.023413e-02 9.155209e-03 9.533152e-03 7.559062e-04 9.881162e-04 1.783328e-02 1.306261e-02 1.328812e-02 1.891221e-02 1.892914e-02 2.936968e-02 
    39.5                6.666694e-03 8.393179e-03 7.340463e-03 7.710626e-03 5.464479e-04 6.982420e-04 1.436037e-02 1.041108e-02 1.058922e-02 1.519644e-02 1.520418e-02 2.364862e-02 
    40.5                5.002408e-03 6.603667e-03 5.620809e-03 5.964623e-03 3.730783e-04 4.673236e-04 1.105123e-02 7.933074e-03 8.067162e-03 1.167425e-02 1.169381e-02 1.821431e-02 
    41.5                3.577475e-03 4.958749e-03 4.104422e-03 4.401864e-03 2.388833e-04 2.944046e-04 8.099975e-03 5.767406e-03 5.862231e-03 8.556761e-03 8.585843e-03 1.338501e-02 
    42.5                2.424076e-03 3.548614e-03 2.849698e-03 3.092371e-03 1.425333e-04 1.735012e-04 5.659235e-03 3.987825e-03 4.051869e-03 5.968713e-03 5.998545e-03 9.357628e-03 
    43.5                1.509149e-03 2.408718e-03 1.850946e-03 2.045013e-03 7.841254e-05 9.455118e-05 3.705487e-03 2.585958e-03 2.625886e-03 3.908853e-03 3.930227e-03 6.136782e-03 
    44.5                8.249757e-04 1.507762e-03 1.078637e-03 1.226419e-03 3.807483e-05 4.585190e-05 2.179349e-03 1.518667e-03 1.539487e-03 2.310480e-03 2.337862e-03 3.642378e-03 
    45.5                3.747712e-04 8.290215e-04 5.383316e-04 6.369157e-04 1.552073e-05 1.875447e-05 1.103797e-03 7.713611e-04 7.800716e-04 1.177147e-03 1.205497e-03 1.868408e-03 
    46.5                1.270981e-04 3.795693e-04 2.157639e-04 2.706896e-04 5.016162e-06 6.144551e-06 4.459646e-04 3.191718e-04 3.217996e-04 4.869822e-04 5.071225e-04 7.799302e-04 
    47.5                3.003567e-05 1.301638e-04 6.256378e-05 8.469499e-05 1.142575e-06 1.448251e-06 1.309573e-04 9.823046e-05 9.831002e-05 1.473687e-04 1.602784e-04 2.414881e-04 
    48.5                4.415878e-06 3.121290e-05 1.244548e-05 1.843277e-05 1.623158e-07 2.169766e-07 2.633104e-05 2.111673e-05 2.099784e-05 3.088977e-05 3.563617e-05 5.223392e-05 
    49.5                1.533387e-07 4.463273e-06 1.301949e-06 2.282918e-06 1.168796e-08 1.771866e-08 2.817310e-06 2.603692e-06 2.558180e-06 3.585537e-06 4.616913e-06 6.439909e-06 
    50.5                0.000000e+00 1.333485e-07 2.217990e-08 5.527718e-08 8.100187e-11 2.298421e-10 5.306194e-08 6.759874e-08 6.470627e-08 7.746044e-08 1.333493e-07 1.657352e-07 
    51.5                0.000000e+00 0.000000e+00 0.000000e+00 0.000000e+00 0.000000e+00 0.000000e+00 0.000000e+00 0.000000e+00 0.000000e+00 0.000000e+00 0.000000e+00 0.000000e+00 
    52.5                0.000000e+00 0.000000e+00 0.000000e+00 0.000000e+00 0.000000e+00 0.000000e+00 0.000000e+00 0.000000e+00 0.000000e+00 0.000000e+00 0.000000e+00 0.000000e+00 
    53.5                0.000000e+00 0.000000e+00 0.000000e+00 0.000000e+00 0.000000e+00 0.000000e+00 0.000000e+00 0.000000e+00 0.000000e+00 0.000000e+00 0.000000e+00 0.000000e+00 
    54.5                0.000000e+00 0.000000e+00 0.000000e+00 0.000000e+00 0.000000e+00 0.000000e+00 0.000000e+00 0.000000e+00 0.000000e+00 0.000000e+00 0.000000e+00 0.000000e+00 
    55.5                0.000000e+00 0.000000e+00 0.000000e+00 0.000000e+00 0.000000e+00 0.000000e+00 0.000000e+00 0.000000e+00 0.000000e+00 0.000000e+00 0.000000e+00 0.000000e+00 
    56.5                0.000000e+00 0.000000e+00 0.000000e+00 0.000000e+00 0.000000e+00 0.000000e+00 0.000000e+00 0.000000e+00 0.000000e+00 0.000000e+00 0.000000e+00 0.000000e+00 
    57.5                0.000000e+00 0.000000e+00 0.000000e+00 0.000000e+00 0.000000e+00 0.000000e+00 0.000000e+00 0.000000e+00 0.000000e+00 0.000000e+00 0.000000e+00 0.000000e+00 
    58.5                0.000000e+00 0.000000e+00 0.000000e+00 0.000000e+00 0.000000e+00 0.000000e+00 0.000000e+00 0.000000e+00 0.000000e+00 0.000000e+00 0.000000e+00 0.000000e+00 
    59.5                0.000000e+00 0.000000e+00 0.000000e+00 0.000000e+00 0.000000e+00 0.000000e+00 0.000000e+00 0.000000e+00 0.000000e+00 0.000000e+00 0.000000e+00 0.000000e+00 
    60.5                0.000000e+00 0.000000e+00 0.000000e+00 0.000000e+00 0.000000e+00 0.000000e+00 0.000000e+00 0.000000e+00 0.000000e+00 0.000000e+00 0.000000e+00 0.000000e+00 
    61.5                0.000000e+00 0.000000e+00 0.000000e+00 0.000000e+00 0.000000e+00 0.000000e+00 0.000000e+00 0.000000e+00 0.000000e+00 0.000000e+00 0.000000e+00 0.000000e+00 
    62.5                0.000000e+00 0.000000e+00 0.000000e+00 0.000000e+00 0.000000e+00 0.000000e+00 0.000000e+00 0.000000e+00 0.000000e+00 0.000000e+00 0.000000e+00 0.000000e+00 
    63.5                0.000000e+00 0.000000e+00 0.000000e+00 0.000000e+00 0.000000e+00 0.000000e+00 0.000000e+00 0.000000e+00 0.000000e+00 0.000000e+00 0.000000e+00 0.000000e+00 
    64.5                0.000000e+00 0.000000e+00 0.000000e+00 0.000000e+00 0.000000e+00 0.000000e+00 0.000000e+00 0.000000e+00 0.000000e+00 0.000000e+00 0.000000e+00 0.000000e+00 
    65.5                0.000000e+00 0.000000e+00 0.000000e+00 0.000000e+00 0.000000e+00 0.000000e+00 0.000000e+00 0.000000e+00 0.000000e+00 0.000000e+00 0.000000e+00 0.000000e+00 
    66.5                0.000000e+00 0.000000e+00 0.000000e+00 0.000000e+00 0.000000e+00 0.000000e+00 0.000000e+00 0.000000e+00 0.000000e+00 0.000000e+00 0.000000e+00 0.000000e+00 
    67.5                0.000000e+00 0.000000e+00 0.000000e+00 0.000000e+00 0.000000e+00 0.000000e+00 0.000000e+00 0.000000e+00 0.000000e+00 0.000000e+00 0.000000e+00 0.000000e+00 
    68.5                0.000000e+00 0.000000e+00 0.000000e+00 0.000000e+00 0.000000e+00 0.000000e+00 0.000000e+00 0.000000e+00 0.000000e+00 0.000000e+00 0.000000e+00 0.000000e+00 
    69.5                0.000000e+00 0.000000e+00 0.000000e+00 0.000000e+00 0.000000e+00 0.000000e+00 0.000000e+00 0.000000e+00 0.000000e+00 0.000000e+00 0.000000e+00 0.000000e+00 
    70.5                0.000000e+00 0.000000e+00 0.000000e+00 0.000000e+00 0.000000e+00 0.000000e+00 0.000000e+00 0.000000e+00 0.000000e+00 0.000000e+00 0.000000e+00 0.000000e+00 
    71.5                0.000000e+00 0.000000e+00 0.000000e+00 0.000000e+00 0.000000e+00 0.000000e+00 0.000000e+00 0.000000e+00 0.000000e+00 0.000000e+00 0.000000e+00 0.000000e+00 
    72.5                0.000000e+00 0.000000e+00 0.000000e+00 0.000000e+00 0.000000e+00 0.000000e+00 0.000000e+00 0.000000e+00 0.000000e+00 0.000000e+00 0.000000e+00 0.000000e+00 
    73.5                0.000000e+00 0.000000e+00 0.000000e+00 0.000000e+00 0.000000e+00 0.000000e+00 0.000000e+00 0.000000e+00 0.000000e+00 0.000000e+00 0.000000e+00 0.000000e+00 
    74.5                0.000000e+00 0.000000e+00 0.000000e+00 0.000000e+00 0.000000e+00 0.000000e+00 0.000000e+00 0.000000e+00 0.000000e+00 0.000000e+00 0.000000e+00 0.000000e+00 
    75.5                0.000000e+00 0.000000e+00 0.000000e+00 0.000000e+00 0.000000e+00 0.000000e+00 0.000000e+00 0.000000e+00 0.000000e+00 0.000000e+00 0.000000e+00 0.000000e+00 
    76.5                0.000000e+00 0.000000e+00 0.000000e+00 0.000000e+00 0.000000e+00 0.000000e+00 0.000000e+00 0.000000e+00 0.000000e+00 0.000000e+00 0.000000e+00 0.000000e+00 
    77.5                0.000000e+00 0.000000e+00 0.000000e+00 0.000000e+00 0.000000e+00 0.000000e+00 0.000000e+00 0.000000e+00 0.000000e+00 0.000000e+00 0.000000e+00 0.000000e+00 
    78.5                0.000000e+00 0.000000e+00 0.000000e+00 0.000000e+00 0.000000e+00 0.000000e+00 0.000000e+00 0.000000e+00 0.000000e+00 0.000000e+00 0.000000e+00 0.000000e+00 
    79.5                0.000000e+00 0.000000e+00 0.000000e+00 0.000000e+00 0.000000e+00 0.000000e+00 0.000000e+00 0.000000e+00 0.000000e+00 0.000000e+00 0.000000e+00 0.000000e+00 


