# 80 rows of flux data
# 12 columns of flux data
# 
# total cross-sectional flux  2.177142e+00 /m^2/yr
#
#                             +x ram      -x wake      +y port -y starboard    +z zenith     -z nadir        Earth          Sun     anti-Sun      rot (x)      rot (y)      rot (z) 
# average speed (km/s)         24.65        23.82        24.64        17.35        23.87        23.50        17.98        24.66        24.65        23.58        24.12        24.10 
# total flux (#/m2/yr)  7.257992e-01 6.189164e-01 8.664499e-01 1.129411e-01 9.655999e-01 7.212472e-04 4.606673e-02 9.572430e-01 9.440247e-01 1.457507e+00 1.834020e+00 1.838012e+00 
# velocity (km/s)
     0.5                0.000000e+00 0.000000e+00 0.000000e+00 0.000000e+00 0.000000e+00 0.000000e+00 0.000000e+00 0.000000e+00 0.000000e+00 0.000000e+00 0.000000e+00 0.000000e+00 
     1.5                0.000000e+00 0.000000e+00 0.000000e+00 0.000000e+00 0.000000e+00 0.000000e+00 0.000000e+00 0.000000e+00 0.000000e+00 0.000000e+00 0.000000e+00 0.000000e+00 
     2.5                0.000000e+00 5.527166e-06 8.328861e-07 8.762155e-07 2.383833e-06 1.768098e-09 3.248909e-07 1.757295e-06 2.435707e-07 3.210153e-06 6.213037e-06 5.901896e-06 
     3.5                3.255156e-06 1.271056e-04 5.788124e-05 2.255864e-05 8.973823e-05 5.646820e-08 9.136529e-06 5.656520e-05 2.575664e-05 1.299477e-04 1.739425e-04 1.669348e-04 
     4.5                1.297162e-04 5.671139e-04 3.677115e-04 1.278126e-04 5.097774e-04 3.484925e-07 5.143081e-05 2.949306e-04 1.862890e-04 7.761809e-04 9.530339e-04 9.397410e-04 
     5.5                5.996739e-04 1.513319e-03 1.256374e-03 4.468332e-04 1.698451e-03 1.172626e-06 1.784141e-04 9.721366e-04 7.615494e-04 2.650347e-03 3.006816e-03 2.999683e-03 
     6.5                1.989646e-03 2.830371e-03 2.830749e-03 1.035608e-03 3.764836e-03 2.956359e-06 4.277759e-04 2.210658e-03 1.938063e-03 5.999355e-03 6.784421e-03 6.832496e-03 
     7.5                3.677385e-03 4.996300e-03 4.988473e-03 1.956758e-03 6.747382e-03 5.392675e-06 7.850113e-04 4.012863e-03 3.773090e-03 1.077764e-02 1.218653e-02 1.228056e-02 
     8.5                6.171931e-03 7.432738e-03 8.101817e-03 2.951543e-03 1.071769e-02 8.572423e-06 1.187958e-03 6.473161e-03 6.374408e-03 1.713101e-02 1.921172e-02 1.937373e-02 
     9.5                9.403531e-03 9.430660e-03 1.128789e-02 4.103563e-03 1.494338e-02 1.185248e-05 1.630125e-03 9.472410e-03 9.473102e-03 2.387386e-02 2.668579e-02 2.689528e-02 
    10.5                1.269200e-02 1.144960e-02 1.391462e-02 5.592445e-03 1.883256e-02 1.588338e-05 2.227838e-03 1.297636e-02 1.291198e-02 3.029007e-02 3.396814e-02 3.431858e-02 
    11.5                1.492380e-02 1.313032e-02 1.626803e-02 6.831794e-03 2.229177e-02 1.859333e-05 2.693314e-03 1.645547e-02 1.626921e-02 3.582558e-02 3.978444e-02 4.022142e-02 
    12.5                1.708480e-02 1.438932e-02 1.805515e-02 7.594865e-03 2.483961e-02 2.027037e-05 2.912620e-03 1.952254e-02 1.930293e-02 3.967839e-02 4.449384e-02 4.491013e-02 
    13.5                1.835498e-02 1.633917e-02 2.002759e-02 7.958085e-03 2.720007e-02 2.169929e-05 2.993385e-03 2.247468e-02 2.224534e-02 4.317640e-02 4.891701e-02 4.929178e-02 
    14.5                2.001331e-02 1.804341e-02 2.256048e-02 7.887589e-03 2.966900e-02 2.324393e-05 2.949931e-03 2.561937e-02 2.535136e-02 4.680842e-02 5.356826e-02 5.391307e-02 
    15.5                2.174864e-02 1.959862e-02 2.503305e-02 7.475950e-03 3.176642e-02 2.457296e-05 2.784445e-03 2.860745e-02 2.830865e-02 4.976894e-02 5.788424e-02 5.817844e-02 
    16.5                2.360705e-02 2.100721e-02 2.733142e-02 7.175610e-03 3.373546e-02 2.642336e-05 2.719826e-03 3.143053e-02 3.110853e-02 5.263417e-02 6.207588e-02 6.238081e-02 
    17.5                2.495087e-02 2.236149e-02 2.934149e-02 6.629241e-03 3.524716e-02 2.731787e-05 2.535864e-03 3.393538e-02 3.359390e-02 5.465952e-02 6.544021e-02 6.569191e-02 
    18.5                2.617551e-02 2.334398e-02 3.126009e-02 5.934809e-03 3.651110e-02 2.798988e-05 2.306796e-03 3.615258e-02 3.578647e-02 5.629956e-02 6.823020e-02 6.844406e-02 
    19.5                2.735593e-02 2.407713e-02 3.267848e-02 5.444274e-03 3.747107e-02 2.866675e-05 2.147142e-03 3.793485e-02 3.754672e-02 5.752360e-02 7.055008e-02 7.073287e-02 
    20.5                2.796760e-02 2.474383e-02 3.374162e-02 4.888409e-03 3.801722e-02 2.895537e-05 1.948221e-03 3.917024e-02 3.875937e-02 5.806393e-02 7.202596e-02 7.218104e-02 
    21.5                2.842128e-02 2.575655e-02 3.498684e-02 4.329686e-03 3.873500e-02 2.934395e-05 1.784493e-03 4.052494e-02 4.007558e-02 5.887888e-02 7.377217e-02 7.390614e-02 
    22.5                2.931820e-02 2.638146e-02 3.634160e-02 3.940247e-03 3.973637e-02 2.970040e-05 1.636206e-03 4.192412e-02 4.143801e-02 6.011755e-02 7.580044e-02 7.590811e-02 
    23.5                3.008923e-02 2.661921e-02 3.716274e-02 3.421239e-03 4.008059e-02 2.982368e-05 1.461758e-03 4.272452e-02 4.220612e-02 6.036063e-02 7.689294e-02 7.697249e-02 
    24.5                3.024825e-02 2.674570e-02 3.751515e-02 2.993050e-03 4.005044e-02 2.957450e-05 1.309515e-03 4.296359e-02 4.241438e-02 6.003760e-02 7.711226e-02 7.716717e-02 
    25.5                3.029182e-02 2.661949e-02 3.768975e-02 2.553931e-03 3.983346e-02 2.915072e-05 1.151764e-03 4.290251e-02 4.232484e-02 5.941880e-02 7.688739e-02 7.692156e-02 
    26.5                3.015232e-02 2.594242e-02 3.731541e-02 2.186623e-03 3.914003e-02 2.835376e-05 1.007061e-03 4.225628e-02 4.166754e-02 5.811307e-02 7.569798e-02 7.571266e-02 
    27.5                2.952626e-02 2.527952e-02 3.644891e-02 1.853870e-03 3.798244e-02 2.752752e-05 8.794363e-04 4.113710e-02 4.054713e-02 5.616800e-02 7.377485e-02 7.377697e-02 
    28.5                2.856928e-02 2.442329e-02 3.544536e-02 1.578046e-03 3.674283e-02 2.631537e-05 7.650536e-04 3.972533e-02 3.913533e-02 5.411712e-02 7.134514e-02 7.133751e-02 
    29.5                2.767603e-02 2.328393e-02 3.414500e-02 1.310258e-03 3.521213e-02 2.512548e-05 6.595642e-04 3.805961e-02 3.747723e-02 5.167450e-02 6.852168e-02 6.850651e-02 
    30.5                2.640465e-02 2.201560e-02 3.249822e-02 1.088201e-03 3.337891e-02 2.371010e-05 5.666908e-04 3.601102e-02 3.544739e-02 4.880407e-02 6.505123e-02 6.503042e-02 
    31.5                2.499434e-02 2.053330e-02 3.062385e-02 8.704403e-04 3.132133e-02 2.216210e-05 4.742153e-04 3.369104e-02 3.315078e-02 4.562793e-02 6.112156e-02 6.109674e-02 
    32.5                2.337620e-02 1.882525e-02 2.844509e-02 6.972180e-04 2.899972e-02 2.042117e-05 3.975405e-04 3.104492e-02 3.053851e-02 4.210498e-02 5.663216e-02 5.660595e-02 
    33.5                2.157285e-02 1.690678e-02 2.594045e-02 5.523299e-04 2.637569e-02 1.856547e-05 3.311844e-04 2.809964e-02 2.763351e-02 3.818973e-02 5.159031e-02 5.156512e-02 
    34.5                1.948265e-02 1.499017e-02 2.324385e-02 4.336486e-04 2.358321e-02 1.659018e-05 2.735310e-04 2.498556e-02 2.456669e-02 3.406018e-02 4.618570e-02 4.616232e-02 
    35.5                1.735398e-02 1.308151e-02 2.051671e-02 3.322093e-04 2.077508e-02 1.461562e-05 2.222211e-04 2.187996e-02 2.150916e-02 2.992837e-02 4.074385e-02 4.072266e-02 
    36.5                1.520258e-02 1.122953e-02 1.784040e-02 2.425711e-04 1.802724e-02 1.265482e-05 1.758454e-04 1.884424e-02 1.852108e-02 2.590418e-02 3.537279e-02 3.535415e-02 
    37.5                1.314159e-02 9.434978e-03 1.523544e-02 1.754093e-04 1.537052e-02 1.077727e-05 1.380304e-04 1.594175e-02 1.566776e-02 2.203542e-02 3.019258e-02 3.017610e-02 
    38.5                1.112236e-02 7.668102e-03 1.269660e-02 1.216199e-04 1.279001e-02 8.958104e-06 1.056995e-04 1.314746e-02 1.292147e-02 1.829773e-02 2.512838e-02 2.511457e-02 
    39.5                9.188626e-03 5.959753e-03 1.021946e-02 8.133039e-05 1.028167e-02 7.215558e-06 7.905832e-05 1.047833e-02 1.029975e-02 1.468262e-02 2.023617e-02 2.022520e-02 
    40.5                7.282662e-03 4.404344e-03 7.860096e-03 5.204546e-05 7.899914e-03 5.580797e-06 5.719617e-05 7.982505e-03 7.848977e-03 1.126307e-02 1.558997e-02 1.558178e-02 
    41.5                5.509689e-03 3.106543e-03 5.758907e-03 3.169052e-05 5.783317e-03 4.130593e-06 3.983173e-05 5.801183e-03 5.706559e-03 8.233651e-03 1.146462e-02 1.145880e-02 
    42.5                3.958546e-03 2.073266e-03 4.022102e-03 1.832452e-05 4.036436e-03 2.898281e-06 2.649197e-05 4.010091e-03 3.946478e-03 5.739480e-03 8.017608e-03 8.013679e-03 
    43.5                2.722556e-03 1.241078e-03 2.631928e-03 9.944295e-06 2.639810e-03 1.909112e-06 1.666659e-05 2.598293e-03 2.559235e-03 3.749804e-03 5.259782e-03 5.257365e-03 
    44.5                1.728728e-03 6.451922e-04 1.547896e-03 5.045437e-06 1.551853e-03 1.158886e-06 9.807061e-06 1.523564e-03 1.503376e-03 2.202789e-03 3.129366e-03 3.128069e-03 
    45.5                9.653756e-04 2.672610e-04 7.836695e-04 2.247433e-06 7.853680e-04 6.140651e-07 5.070170e-06 7.721856e-04 7.635932e-04 1.114220e-03 1.610327e-03 1.609743e-03 
    46.5                4.508940e-04 7.831886e-05 3.167483e-04 8.674403e-07 3.173286e-04 2.764711e-07 2.246413e-06 3.184331e-04 3.162002e-04 4.501365e-04 6.772915e-04 6.771019e-04 
    47.5                1.555532e-04 1.526555e-05 9.314064e-05 2.687263e-07 9.328594e-05 9.617810e-08 7.800012e-07 9.745916e-05 9.739619e-05 1.323546e-04 2.123317e-04 2.122900e-04 
    48.5                3.759244e-05 1.364088e-06 1.876313e-05 5.830550e-08 1.878431e-05 2.366398e-08 1.880760e-07 2.083145e-05 2.097934e-05 2.666188e-05 4.665901e-05 4.665492e-05 
    49.5                5.238925e-06 1.187530e-08 2.023726e-06 7.959244e-09 2.025241e-06 3.448113e-09 2.745537e-08 2.550386e-06 2.598674e-06 2.877997e-06 5.924480e-06 5.924476e-06 
    50.5                1.515718e-07 0.000000e+00 3.878851e-08 2.467914e-10 3.880260e-08 1.064727e-10 9.332897e-10 6.545451e-08 6.704110e-08 5.531694e-08 1.591317e-07 1.591510e-07 
    51.5                0.000000e+00 0.000000e+00 0.000000e+00 0.000000e+00 0.000000e+00 0.000000e+00 0.000000e+00 0.000000e+00 0.000000e+00 0.000000e+00 0.000000e+00 0.000000e+00 
    52.5                0.000000e+00 0.000000e+00 0.000000e+00 0.000000e+00 0.000000e+00 0.000000e+00 0.000000e+00 0.000000e+00 0.000000e+00 0.000000e+00 0.000000e+00 0.000000e+00 
    53.5                0.000000e+00 0.000000e+00 0.000000e+00 0.000000e+00 0.000000e+00 0.000000e+00 0.000000e+00 0.000000e+00 0.000000e+00 0.000000e+00 0.000000e+00 0.000000e+00 
    54.5                0.000000e+00 0.000000e+00 0.000000e+00 0.000000e+00 0.000000e+00 0.000000e+00 0.000000e+00 0.000000e+00 0.000000e+00 0.000000e+00 0.000000e+00 0.000000e+00 
    55.5                0.000000e+00 0.000000e+00 0.000000e+00 0.000000e+00 0.000000e+00 0.000000e+00 0.000000e+00 0.000000e+00 0.000000e+00 0.000000e+00 0.000000e+00 0.000000e+00 
    56.5                0.000000e+00 0.000000e+00 0.000000e+00 0.000000e+00 0.000000e+00 0.000000e+00 0.000000e+00 0.000000e+00 0.000000e+00 0.000000e+00 0.000000e+00 0.000000e+00 
    57.5                0.000000e+00 0.000000e+00 0.000000e+00 0.000000e+00 0.000000e+00 0.000000e+00 0.000000e+00 0.000000e+00 0.000000e+00 0.000000e+00 0.000000e+00 0.000000e+00 
    58.5                0.000000e+00 0.000000e+00 0.000000e+00 0.000000e+00 0.000000e+00 0.000000e+00 0.000000e+00 0.000000e+00 0.000000e+00 0.000000e+00 0.000000e+00 0.000000e+00 
    59.5                0.000000e+00 0.000000e+00 0.000000e+00 0.000000e+00 0.000000e+00 0.000000e+00 0.000000e+00 0.000000e+00 0.000000e+00 0.000000e+00 0.000000e+00 0.000000e+00 
    60.5                0.000000e+00 0.000000e+00 0.000000e+00 0.000000e+00 0.000000e+00 0.000000e+00 0.000000e+00 0.000000e+00 0.000000e+00 0.000000e+00 0.000000e+00 0.000000e+00 
    61.5                0.000000e+00 0.000000e+00 0.000000e+00 0.000000e+00 0.000000e+00 0.000000e+00 0.000000e+00 0.000000e+00 0.000000e+00 0.000000e+00 0.000000e+00 0.000000e+00 
    62.5                0.000000e+00 0.000000e+00 0.000000e+00 0.000000e+00 0.000000e+00 0.000000e+00 0.000000e+00 0.000000e+00 0.000000e+00 0.000000e+00 0.000000e+00 0.000000e+00 
    63.5                0.000000e+00 0.000000e+00 0.000000e+00 0.000000e+00 0.000000e+00 0.000000e+00 0.000000e+00 0.000000e+00 0.000000e+00 0.000000e+00 0.000000e+00 0.000000e+00 
    64.5                0.000000e+00 0.000000e+00 0.000000e+00 0.000000e+00 0.000000e+00 0.000000e+00 0.000000e+00 0.000000e+00 0.000000e+00 0.000000e+00 0.000000e+00 0.000000e+00 
    65.5                0.000000e+00 0.000000e+00 0.000000e+00 0.000000e+00 0.000000e+00 0.000000e+00 0.000000e+00 0.000000e+00 0.000000e+00 0.000000e+00 0.000000e+00 0.000000e+00 
    66.5                0.000000e+00 0.000000e+00 0.000000e+00 0.000000e+00 0.000000e+00 0.000000e+00 0.000000e+00 0.000000e+00 0.000000e+00 0.000000e+00 0.000000e+00 0.000000e+00 
    67.5                0.000000e+00 0.000000e+00 0.000000e+00 0.000000e+00 0.000000e+00 0.000000e+00 0.000000e+00 0.000000e+00 0.000000e+00 0.000000e+00 0.000000e+00 0.000000e+00 
    68.5                0.000000e+00 0.000000e+00 0.000000e+00 0.000000e+00 0.000000e+00 0.000000e+00 0.000000e+00 0.000000e+00 0.000000e+00 0.000000e+00 0.000000e+00 0.000000e+00 
    69.5                0.000000e+00 0.000000e+00 0.000000e+00 0.000000e+00 0.000000e+00 0.000000e+00 0.000000e+00 0.000000e+00 0.000000e+00 0.000000e+00 0.000000e+00 0.000000e+00 
    70.5                0.000000e+00 0.000000e+00 0.000000e+00 0.000000e+00 0.000000e+00 0.000000e+00 0.000000e+00 0.000000e+00 0.000000e+00 0.000000e+00 0.000000e+00 0.000000e+00 
    71.5                0.000000e+00 0.000000e+00 0.000000e+00 0.000000e+00 0.000000e+00 0.000000e+00 0.000000e+00 0.000000e+00 0.000000e+00 0.000000e+00 0.000000e+00 0.000000e+00 
    72.5                0.000000e+00 0.000000e+00 0.000000e+00 0.000000e+00 0.000000e+00 0.000000e+00 0.000000e+00 0.000000e+00 0.000000e+00 0.000000e+00 0.000000e+00 0.000000e+00 
    73.5                0.000000e+00 0.000000e+00 0.000000e+00 0.000000e+00 0.000000e+00 0.000000e+00 0.000000e+00 0.000000e+00 0.000000e+00 0.000000e+00 0.000000e+00 0.000000e+00 
    74.5                0.000000e+00 0.000000e+00 0.000000e+00 0.000000e+00 0.000000e+00 0.000000e+00 0.000000e+00 0.000000e+00 0.000000e+00 0.000000e+00 0.000000e+00 0.000000e+00 
    75.5                0.000000e+00 0.000000e+00 0.000000e+00 0.000000e+00 0.000000e+00 0.000000e+00 0.000000e+00 0.000000e+00 0.000000e+00 0.000000e+00 0.000000e+00 0.000000e+00 
    76.5                0.000000e+00 0.000000e+00 0.000000e+00 0.000000e+00 0.000000e+00 0.000000e+00 0.000000e+00 0.000000e+00 0.000000e+00 0.000000e+00 0.000000e+00 0.000000e+00 
    77.5                0.000000e+00 0.000000e+00 0.000000e+00 0.000000e+00 0.000000e+00 0.000000e+00 0.000000e+00 0.000000e+00 0.000000e+00 0.000000e+00 0.000000e+00 0.000000e+00 
    78.5                0.000000e+00 0.000000e+00 0.000000e+00 0.000000e+00 0.000000e+00 0.000000e+00 0.000000e+00 0.000000e+00 0.000000e+00 0.000000e+00 0.000000e+00 0.000000e+00 
    79.5                0.000000e+00 0.000000e+00 0.000000e+00 0.000000e+00 0.000000e+00 0.000000e+00 0.000000e+00 0.000000e+00 0.000000e+00 0.000000e+00 0.000000e+00 0.000000e+00 


