# 80 rows of flux data
# 12 columns of flux data
# 
# total cross-sectional flux  2.171532e+00 /m^2/yr
#
#                             +x ram      -x wake      +y port -y starboard    +z zenith     -z nadir        Earth          Sun     anti-Sun      rot (x)      rot (y)      rot (z) 
# average speed (km/s)         23.82        24.65        17.30        24.51        23.99        23.47        24.39        24.66        24.66        23.59        24.16        24.07 
# total flux (#/m2/yr)  6.172721e-01 7.233323e-01 1.055837e-01 8.025304e-01 1.028913e+00 6.636517e-04 1.257506e+00 9.415115e-01 9.548701e-01 1.454434e+00 1.876444e+00 1.783491e+00 
# velocity (km/s)
     0.5                0.000000e+00 0.000000e+00 0.000000e+00 0.000000e+00 0.000000e+00 0.000000e+00 0.000000e+00 0.000000e+00 0.000000e+00 0.000000e+00 0.000000e+00 0.000000e+00 
     1.5                0.000000e+00 0.000000e+00 0.000000e+00 0.000000e+00 0.000000e+00 0.000000e+00 0.000000e+00 0.000000e+00 0.000000e+00 0.000000e+00 0.000000e+00 0.000000e+00 
     2.5                5.265413e-06 0.000000e+00 7.178234e-07 7.536012e-07 2.342941e-06 1.184317e-09 2.013264e-06 2.008440e-07 1.770491e-06 3.005207e-06 5.959096e-06 5.560510e-06 
     3.5                1.242374e-04 3.234360e-06 1.976975e-05 5.378792e-05 9.220854e-05 5.260712e-08 9.825688e-05 2.427803e-05 5.645957e-05 1.269885e-04 1.735853e-04 1.596391e-04 
     4.5                5.586893e-04 1.280351e-04 1.172507e-04 3.436230e-04 5.273520e-04 3.174963e-07 5.843808e-04 1.809286e-04 2.937949e-04 7.643352e-04 9.582180e-04 9.056967e-04 
     5.5                1.503123e-03 5.935352e-04 4.160511e-04 1.191688e-03 1.762981e-03 1.081767e-06 1.972903e-03 7.496460e-04 9.699369e-04 2.629660e-03 3.044169e-03 2.914012e-03 
     6.5                2.813346e-03 1.976685e-03 9.439690e-04 2.700348e-03 3.914086e-03 2.706722e-06 4.413102e-03 1.912309e-03 2.203860e-03 5.941292e-03 6.875264e-03 6.637140e-03 
     7.5                4.973541e-03 3.655649e-03 1.817772e-03 4.780838e-03 6.998322e-03 5.017379e-06 7.803361e-03 3.739238e-03 3.997735e-03 1.070064e-02 1.234333e-02 1.197834e-02 
     8.5                7.404006e-03 6.146994e-03 2.720504e-03 7.755524e-03 1.115500e-02 7.839466e-06 1.257388e-02 6.333419e-03 6.443193e-03 1.701268e-02 1.950549e-02 1.888133e-02 
     9.5                9.405081e-03 9.366728e-03 3.813939e-03 1.081044e-02 1.555728e-02 1.093288e-05 1.750444e-02 9.429304e-03 9.426101e-03 2.374753e-02 2.710759e-02 2.625269e-02 
    10.5                1.142874e-02 1.264118e-02 5.198422e-03 1.343721e-02 1.955208e-02 1.475090e-05 2.175566e-02 1.286352e-02 1.291956e-02 3.015380e-02 3.446444e-02 3.358275e-02 
    11.5                1.311208e-02 1.488057e-02 6.384834e-03 1.575708e-02 2.310996e-02 1.748054e-05 2.551933e-02 1.621662e-02 1.638522e-02 3.569662e-02 4.037073e-02 3.941599e-02 
    12.5                1.435913e-02 1.704144e-02 7.182494e-03 1.743241e-02 2.573418e-02 1.921183e-05 2.825106e-02 1.923810e-02 1.945402e-02 3.956369e-02 4.512731e-02 4.404406e-02 
    13.5                1.629957e-02 1.830583e-02 7.587456e-03 1.920167e-02 2.822722e-02 2.038084e-05 3.108497e-02 2.216554e-02 2.239779e-02 4.305085e-02 4.962508e-02 4.831063e-02 
    14.5                1.799686e-02 1.996190e-02 7.516238e-03 2.150242e-02 3.091703e-02 2.176126e-05 3.458377e-02 2.526963e-02 2.554407e-02 4.668930e-02 5.442365e-02 5.276647e-02 
    15.5                1.954289e-02 2.168069e-02 7.114373e-03 2.368317e-02 3.324869e-02 2.282075e-05 3.785231e-02 2.821769e-02 2.852191e-02 4.962831e-02 5.888202e-02 5.681458e-02 
    16.5                2.094823e-02 2.353906e-02 6.770389e-03 2.578040e-02 3.544331e-02 2.437999e-05 4.098007e-02 3.101143e-02 3.134044e-02 5.248467e-02 6.322747e-02 6.084193e-02 
    17.5                2.229621e-02 2.487061e-02 6.250046e-03 2.752827e-02 3.716183e-02 2.509914e-05 4.357920e-02 3.348706e-02 3.383805e-02 5.450518e-02 6.672343e-02 6.397550e-02 
    18.5                2.327128e-02 2.608986e-02 5.563638e-03 2.919434e-02 3.864333e-02 2.561598e-05 4.600630e-02 3.567681e-02 3.604941e-02 5.614023e-02 6.965528e-02 6.654795e-02 
    19.5                2.400354e-02 2.726606e-02 5.094038e-03 3.043015e-02 3.976515e-02 2.623671e-05 4.781217e-02 3.743890e-02 3.783382e-02 5.737911e-02 7.208118e-02 6.872828e-02 
    20.5                2.466853e-02 2.787102e-02 4.553082e-03 3.132693e-02 4.044411e-02 2.640381e-05 4.907648e-02 3.864497e-02 3.906584e-02 5.791669e-02 7.364039e-02 7.006618e-02 
    21.5                2.567401e-02 2.832527e-02 4.002896e-03 3.240093e-02 4.131178e-02 2.674283e-05 5.063445e-02 3.995976e-02 4.041688e-02 5.873346e-02 7.548903e-02 7.167094e-02 
    22.5                2.629907e-02 2.922368e-02 3.639542e-03 3.357839e-02 4.245992e-02 2.705272e-05 5.237286e-02 4.132530e-02 4.182033e-02 5.998399e-02 7.761963e-02 7.357347e-02 
    23.5                2.653674e-02 2.998956e-02 3.146312e-03 3.425313e-02 4.291183e-02 2.713719e-05 5.332850e-02 4.209355e-02 4.261935e-02 6.022946e-02 7.878071e-02 7.455403e-02 
    24.5                2.666326e-02 3.014594e-02 2.746446e-03 3.452136e-02 4.294591e-02 2.699547e-05 5.366970e-02 4.230550e-02 4.286229e-02 5.992521e-02 7.904122e-02 7.471254e-02 
    25.5                2.653894e-02 3.019273e-02 2.336359e-03 3.461948e-02 4.277925e-02 2.662540e-05 5.375620e-02 4.222227e-02 4.280465e-02 5.931812e-02 7.885443e-02 7.444125e-02 
    26.5                2.586713e-02 3.005324e-02 2.001776e-03 3.422183e-02 4.208380e-02 2.593737e-05 5.309184e-02 4.157083e-02 4.216430e-02 5.802444e-02 7.766572e-02 7.324640e-02 
    27.5                2.520621e-02 2.942561e-02 1.695210e-03 3.338510e-02 4.087915e-02 2.520152e-05 5.175309e-02 4.045268e-02 4.104789e-02 5.608895e-02 7.570408e-02 7.135654e-02 
    28.5                2.435479e-02 2.847355e-02 1.444319e-03 3.243102e-02 3.957866e-02 2.411036e-05 5.024573e-02 3.904937e-02 3.964125e-02 5.404875e-02 7.323897e-02 6.897761e-02 
    29.5                2.322135e-02 2.758422e-02 1.197892e-03 3.121180e-02 3.796066e-02 2.305175e-05 4.833085e-02 3.739791e-02 3.798172e-02 5.161686e-02 7.035833e-02 6.623007e-02 
    30.5                2.195831e-02 2.631522e-02 9.961439e-04 2.968246e-02 3.600707e-02 2.179214e-05 4.594674e-02 3.537406e-02 3.593863e-02 4.875590e-02 6.680779e-02 6.285863e-02 
    31.5                2.048173e-02 2.490999e-02 7.963929e-04 2.794770e-02 3.381093e-02 2.037505e-05 4.324586e-02 3.308442e-02 3.362482e-02 4.558826e-02 6.278647e-02 5.904563e-02 
    32.5                1.878172e-02 2.329528e-02 6.379413e-04 2.594308e-02 3.132127e-02 1.879206e-05 4.013706e-02 3.047811e-02 3.098603e-02 4.207263e-02 5.818646e-02 5.469760e-02 
    33.5                1.687099e-02 2.149854e-02 5.050161e-04 2.364830e-02 2.850147e-02 1.709699e-05 3.658208e-02 2.758224e-02 2.804741e-02 3.816577e-02 5.301530e-02 4.982577e-02 
    34.5                1.495987e-02 1.941213e-02 3.964096e-04 2.117915e-02 2.549085e-02 1.528329e-05 3.276190e-02 2.451965e-02 2.493781e-02 3.403830e-02 4.746203e-02 4.459858e-02 
    35.5                1.305697e-02 1.729202e-02 3.034978e-04 1.868840e-02 2.246450e-02 1.346882e-05 2.890826e-02 2.146949e-02 2.184047e-02 2.991309e-02 4.187578e-02 3.934342e-02 
    36.5                1.121148e-02 1.514578e-02 2.207075e-04 1.624378e-02 1.949954e-02 1.165999e-05 2.512794e-02 1.848783e-02 1.880915e-02 2.589159e-02 3.635966e-02 3.415252e-02 
    37.5                9.421622e-03 1.309288e-02 1.597955e-04 1.386777e-02 1.663062e-02 9.946157e-06 2.145461e-02 1.563950e-02 1.591431e-02 2.202691e-02 3.103846e-02 2.915099e-02 
    38.5                7.660060e-03 1.107958e-02 1.104980e-04 1.155442e-02 1.384342e-02 8.255637e-06 1.787821e-02 1.289905e-02 1.312561e-02 1.829320e-02 2.583628e-02 2.426011e-02 
    39.5                5.955592e-03 9.151881e-03 7.357841e-05 9.297133e-03 1.113037e-02 6.654380e-06 1.438846e-02 1.028185e-02 1.046045e-02 1.467865e-02 2.080604e-02 1.953663e-02 
    40.5                4.402909e-03 7.252109e-03 4.689186e-05 7.149492e-03 8.554252e-03 5.142944e-06 1.106760e-02 7.834897e-03 7.969316e-03 1.126112e-02 1.602843e-02 1.505185e-02 
    41.5                3.106678e-03 5.484868e-03 2.842989e-05 5.236786e-03 6.262741e-03 3.805724e-06 8.108816e-03 5.695988e-03 5.790601e-03 8.231711e-03 1.178401e-02 1.106945e-02 
    42.5                2.074255e-03 3.939167e-03 1.636163e-05 3.656535e-03 4.371291e-03 2.668982e-06 5.663746e-03 3.938311e-03 4.002473e-03 5.737820e-03 8.239490e-03 7.740450e-03 
    43.5                1.242814e-03 2.709036e-03 8.845614e-06 2.392725e-03 2.859689e-03 1.761115e-06 3.707560e-03 2.553972e-03 2.593821e-03 3.749469e-03 5.405442e-03 5.079068e-03 
    44.5                6.468830e-04 1.718658e-03 4.468210e-06 1.406333e-03 1.680581e-03 1.069708e-06 2.180108e-03 1.499345e-03 1.520275e-03 2.201622e-03 3.212811e-03 3.021999e-03 
    45.5                2.686132e-04 9.588863e-04 1.982113e-06 7.117833e-04 8.505335e-04 5.669466e-07 1.103994e-03 7.613197e-04 7.700637e-04 1.113502e-03 1.651407e-03 1.555562e-03 
    46.5                7.888296e-05 4.473659e-04 7.601872e-07 2.873420e-04 3.433885e-04 2.540294e-07 4.459449e-04 3.146903e-04 3.172955e-04 4.494009e-04 6.925258e-04 6.546106e-04 
    47.5                1.546727e-05 1.537840e-04 2.354353e-07 8.429359e-05 1.007524e-04 8.769666e-08 1.309058e-04 9.666576e-05 9.678204e-05 1.318544e-04 2.159020e-04 2.051415e-04 
    48.5                1.404205e-06 3.702800e-05 5.051616e-08 1.692825e-05 2.023835e-05 2.100982e-08 2.631180e-05 2.073623e-05 2.060911e-05 2.648679e-05 4.710341e-05 4.505633e-05 
    49.5                1.245266e-08 5.133258e-06 7.043672e-09 1.805981e-06 2.160583e-06 3.088774e-09 2.812324e-06 2.546740e-06 2.503300e-06 2.829711e-06 5.902542e-06 5.711696e-06 
    50.5                0.000000e+00 1.475844e-07 2.159143e-10 3.383112e-08 4.050623e-08 1.000416e-10 5.299883e-08 6.575586e-08 6.294370e-08 5.319263e-08 1.559201e-07 1.535439e-07 
    51.5                0.000000e+00 0.000000e+00 0.000000e+00 0.000000e+00 0.000000e+00 0.000000e+00 0.000000e+00 0.000000e+00 0.000000e+00 0.000000e+00 0.000000e+00 0.000000e+00 
    52.5                0.000000e+00 0.000000e+00 0.000000e+00 0.000000e+00 0.000000e+00 0.000000e+00 0.000000e+00 0.000000e+00 0.000000e+00 0.000000e+00 0.000000e+00 0.000000e+00 
    53.5                0.000000e+00 0.000000e+00 0.000000e+00 0.000000e+00 0.000000e+00 0.000000e+00 0.000000e+00 0.000000e+00 0.000000e+00 0.000000e+00 0.000000e+00 0.000000e+00 
    54.5                0.000000e+00 0.000000e+00 0.000000e+00 0.000000e+00 0.000000e+00 0.000000e+00 0.000000e+00 0.000000e+00 0.000000e+00 0.000000e+00 0.000000e+00 0.000000e+00 
    55.5                0.000000e+00 0.000000e+00 0.000000e+00 0.000000e+00 0.000000e+00 0.000000e+00 0.000000e+00 0.000000e+00 0.000000e+00 0.000000e+00 0.000000e+00 0.000000e+00 
    56.5                0.000000e+00 0.000000e+00 0.000000e+00 0.000000e+00 0.000000e+00 0.000000e+00 0.000000e+00 0.000000e+00 0.000000e+00 0.000000e+00 0.000000e+00 0.000000e+00 
    57.5                0.000000e+00 0.000000e+00 0.000000e+00 0.000000e+00 0.000000e+00 0.000000e+00 0.000000e+00 0.000000e+00 0.000000e+00 0.000000e+00 0.000000e+00 0.000000e+00 
    58.5                0.000000e+00 0.000000e+00 0.000000e+00 0.000000e+00 0.000000e+00 0.000000e+00 0.000000e+00 0.000000e+00 0.000000e+00 0.000000e+00 0.000000e+00 0.000000e+00 
    59.5                0.000000e+00 0.000000e+00 0.000000e+00 0.000000e+00 0.000000e+00 0.000000e+00 0.000000e+00 0.000000e+00 0.000000e+00 0.000000e+00 0.000000e+00 0.000000e+00 
    60.5                0.000000e+00 0.000000e+00 0.000000e+00 0.000000e+00 0.000000e+00 0.000000e+00 0.000000e+00 0.000000e+00 0.000000e+00 0.000000e+00 0.000000e+00 0.000000e+00 
    61.5                0.000000e+00 0.000000e+00 0.000000e+00 0.000000e+00 0.000000e+00 0.000000e+00 0.000000e+00 0.000000e+00 0.000000e+00 0.000000e+00 0.000000e+00 0.000000e+00 
    62.5                0.000000e+00 0.000000e+00 0.000000e+00 0.000000e+00 0.000000e+00 0.000000e+00 0.000000e+00 0.000000e+00 0.000000e+00 0.000000e+00 0.000000e+00 0.000000e+00 
    63.5                0.000000e+00 0.000000e+00 0.000000e+00 0.000000e+00 0.000000e+00 0.000000e+00 0.000000e+00 0.000000e+00 0.000000e+00 0.000000e+00 0.000000e+00 0.000000e+00 
    64.5                0.000000e+00 0.000000e+00 0.000000e+00 0.000000e+00 0.000000e+00 0.000000e+00 0.000000e+00 0.000000e+00 0.000000e+00 0.000000e+00 0.000000e+00 0.000000e+00 
    65.5                0.000000e+00 0.000000e+00 0.000000e+00 0.000000e+00 0.000000e+00 0.000000e+00 0.000000e+00 0.000000e+00 0.000000e+00 0.000000e+00 0.000000e+00 0.000000e+00 
    66.5                0.000000e+00 0.000000e+00 0.000000e+00 0.000000e+00 0.000000e+00 0.000000e+00 0.000000e+00 0.000000e+00 0.000000e+00 0.000000e+00 0.000000e+00 0.000000e+00 
    67.5                0.000000e+00 0.000000e+00 0.000000e+00 0.000000e+00 0.000000e+00 0.000000e+00 0.000000e+00 0.000000e+00 0.000000e+00 0.000000e+00 0.000000e+00 0.000000e+00 
    68.5                0.000000e+00 0.000000e+00 0.000000e+00 0.000000e+00 0.000000e+00 0.000000e+00 0.000000e+00 0.000000e+00 0.000000e+00 0.000000e+00 0.000000e+00 0.000000e+00 
    69.5                0.000000e+00 0.000000e+00 0.000000e+00 0.000000e+00 0.000000e+00 0.000000e+00 0.000000e+00 0.000000e+00 0.000000e+00 0.000000e+00 0.000000e+00 0.000000e+00 
    70.5                0.000000e+00 0.000000e+00 0.000000e+00 0.000000e+00 0.000000e+00 0.000000e+00 0.000000e+00 0.000000e+00 0.000000e+00 0.000000e+00 0.000000e+00 0.000000e+00 
    71.5                0.000000e+00 0.000000e+00 0.000000e+00 0.000000e+00 0.000000e+00 0.000000e+00 0.000000e+00 0.000000e+00 0.000000e+00 0.000000e+00 0.000000e+00 0.000000e+00 
    72.5                0.000000e+00 0.000000e+00 0.000000e+00 0.000000e+00 0.000000e+00 0.000000e+00 0.000000e+00 0.000000e+00 0.000000e+00 0.000000e+00 0.000000e+00 0.000000e+00 
    73.5                0.000000e+00 0.000000e+00 0.000000e+00 0.000000e+00 0.000000e+00 0.000000e+00 0.000000e+00 0.000000e+00 0.000000e+00 0.000000e+00 0.000000e+00 0.000000e+00 
    74.5                0.000000e+00 0.000000e+00 0.000000e+00 0.000000e+00 0.000000e+00 0.000000e+00 0.000000e+00 0.000000e+00 0.000000e+00 0.000000e+00 0.000000e+00 0.000000e+00 
    75.5                0.000000e+00 0.000000e+00 0.000000e+00 0.000000e+00 0.000000e+00 0.000000e+00 0.000000e+00 0.000000e+00 0.000000e+00 0.000000e+00 0.000000e+00 0.000000e+00 
    76.5                0.000000e+00 0.000000e+00 0.000000e+00 0.000000e+00 0.000000e+00 0.000000e+00 0.000000e+00 0.000000e+00 0.000000e+00 0.000000e+00 0.000000e+00 0.000000e+00 
    77.5                0.000000e+00 0.000000e+00 0.000000e+00 0.000000e+00 0.000000e+00 0.000000e+00 0.000000e+00 0.000000e+00 0.000000e+00 0.000000e+00 0.000000e+00 0.000000e+00 
    78.5                0.000000e+00 0.000000e+00 0.000000e+00 0.000000e+00 0.000000e+00 0.000000e+00 0.000000e+00 0.000000e+00 0.000000e+00 0.000000e+00 0.000000e+00 0.000000e+00 
    79.5                0.000000e+00 0.000000e+00 0.000000e+00 0.000000e+00 0.000000e+00 0.000000e+00 0.000000e+00 0.000000e+00 0.000000e+00 0.000000e+00 0.000000e+00 0.000000e+00 


