# 80 rows of flux data
# 12 columns of flux data
# 
# total cross-sectional flux  2.193500e+00 /m^2/yr
#
#                       +x vernal eq.           -x           +y           -y +z eclip. N. -z eclip. S.        Earth          Sun     anti-Sun      rot (x)      rot (y)      rot (z) 
# average speed (km/s)         23.93        24.55        24.17        24.30        22.34        19.27        24.59        24.64        24.65        23.62        23.62        24.24 
# total flux (#/m2/yr)  6.546106e-01 6.821728e-01 6.656020e-01 6.716313e-01 1.197278e-01 3.205146e-01 1.222307e+00 9.518330e-01 9.642915e-01 1.491430e+00 1.491073e+00 2.100156e+00 
# velocity (km/s)
     0.5                0.000000e+00 0.000000e+00 0.000000e+00 0.000000e+00 0.000000e+00 0.000000e+00 0.000000e+00 0.000000e+00 0.000000e+00 0.000000e+00 0.000000e+00 0.000000e+00 
     1.5                0.000000e+00 0.000000e+00 0.000000e+00 0.000000e+00 0.000000e+00 0.000000e+00 0.000000e+00 0.000000e+00 0.000000e+00 0.000000e+00 0.000000e+00 0.000000e+00 
     2.5                6.811225e-07 1.026814e-06 2.933129e-06 2.907780e-06 2.369872e-08 2.022177e-06 1.774691e-06 3.424830e-07 1.501464e-06 6.274009e-06 2.858993e-06 6.246027e-06 
     3.5                7.294388e-05 4.826137e-05 6.413506e-05 6.253470e-05 5.568914e-06 5.357744e-05 9.425115e-05 2.928386e-05 5.631333e-05 1.485908e-04 1.446901e-04 1.949452e-04 
     4.5                4.573030e-04 2.238761e-04 3.550178e-04 3.328219e-04 5.325999e-05 2.976109e-04 5.572519e-04 2.002742e-04 2.927165e-04 8.319183e-04 8.238464e-04 1.073269e-03 
     5.5                1.317655e-03 8.287574e-04 1.135800e-03 1.072005e-03 2.165482e-04 1.041715e-03 1.859536e-03 7.995201e-04 9.759052e-04 2.745498e-03 2.690858e-03 3.420139e-03 
     6.5                2.756357e-03 2.106467e-03 2.507581e-03 2.384240e-03 5.242065e-04 2.378963e-03 4.111763e-03 2.001243e-03 2.220619e-03 6.146698e-03 6.114118e-03 7.662367e-03 
     7.5                4.670425e-03 4.015769e-03 4.401254e-03 4.290271e-03 9.351380e-04 4.390898e-03 7.237934e-03 3.855788e-03 4.037299e-03 1.102299e-02 1.103679e-02 1.364116e-02 
     8.5                7.180375e-03 6.544374e-03 6.930856e-03 6.821035e-03 1.530422e-03 6.789472e-03 1.165164e-02 6.469412e-03 6.533524e-03 1.735510e-02 1.734259e-02 2.157843e-02 
     9.5                9.849438e-03 9.219540e-03 9.602094e-03 9.477811e-03 2.183547e-03 9.493630e-03 1.622699e-02 9.589120e-03 9.584915e-03 2.416415e-02 2.417890e-02 2.996056e-02 
    10.5                1.230629e-02 1.176742e-02 1.208708e-02 1.198567e-02 2.659855e-03 1.249907e-02 1.997642e-02 1.302513e-02 1.311233e-02 3.081323e-02 3.080450e-02 3.781828e-02 
    11.5                1.425272e-02 1.381530e-02 1.409164e-02 1.399564e-02 3.039326e-03 1.488428e-02 2.340194e-02 1.641230e-02 1.659845e-02 3.619560e-02 3.618284e-02 4.411363e-02 
    12.5                1.569305e-02 1.558582e-02 1.566028e-02 1.563461e-02 3.335819e-03 1.633803e-02 2.605715e-02 1.945390e-02 1.965797e-02 4.021558e-02 4.022237e-02 4.914699e-02 
    13.5                1.744085e-02 1.701259e-02 1.725824e-02 1.717805e-02 3.684141e-03 1.732113e-02 2.887944e-02 2.243064e-02 2.263358e-02 4.392565e-02 4.393396e-02 5.410194e-02 
    14.5                1.921623e-02 1.867323e-02 1.904658e-02 1.893737e-02 4.131628e-03 1.774314e-02 3.236553e-02 2.557112e-02 2.581314e-02 4.762687e-02 4.753886e-02 5.959191e-02 
    15.5                2.076050e-02 2.042678e-02 2.067327e-02 2.061306e-02 4.547609e-03 1.758141e-02 3.571252e-02 2.857303e-02 2.884454e-02 5.071769e-02 5.061833e-02 6.478138e-02 
    16.5                2.235781e-02 2.205860e-02 2.226184e-02 2.219856e-02 4.849112e-03 1.745438e-02 3.882641e-02 3.138747e-02 3.168016e-02 5.366102e-02 5.363167e-02 6.980221e-02 
    17.5                2.355948e-02 2.351159e-02 2.354596e-02 2.354169e-02 5.107158e-03 1.688271e-02 4.153895e-02 3.389797e-02 3.421021e-02 5.580678e-02 5.579023e-02 7.394646e-02 
    18.5                2.457890e-02 2.472127e-02 2.469615e-02 2.472779e-02 5.367087e-03 1.603621e-02 4.411441e-02 3.612408e-02 3.645580e-02 5.753059e-02 5.741116e-02 7.753730e-02 
    19.5                2.537089e-02 2.581778e-02 2.555425e-02 2.564413e-02 5.512977e-03 1.537875e-02 4.603327e-02 3.789743e-02 3.824924e-02 5.883650e-02 5.883073e-02 8.041108e-02 
    20.5                2.597051e-02 2.646225e-02 2.614076e-02 2.624045e-02 5.546054e-03 1.446381e-02 4.744475e-02 3.911411e-02 3.949081e-02 5.942583e-02 5.947327e-02 8.231672e-02 
    21.5                2.682702e-02 2.703682e-02 2.691457e-02 2.696495e-02 5.577813e-03 1.355416e-02 4.913279e-02 4.043509e-02 4.084708e-02 6.028727e-02 6.026704e-02 8.461807e-02 
    22.5                2.755539e-02 2.788619e-02 2.771314e-02 2.778246e-02 5.665092e-03 1.295188e-02 5.099602e-02 4.180751e-02 4.225671e-02 6.151908e-02 6.147024e-02 8.713022e-02 
    23.5                2.787175e-02 2.852212e-02 2.813090e-02 2.826749e-02 5.658285e-03 1.203763e-02 5.210691e-02 4.257750e-02 4.305870e-02 6.182619e-02 6.182336e-02 8.858782e-02 
    24.5                2.798767e-02 2.865114e-02 2.826079e-02 2.839866e-02 5.534499e-03 1.111946e-02 5.259731e-02 4.277660e-02 4.329175e-02 6.153460e-02 6.151723e-02 8.898367e-02 
    25.5                2.785455e-02 2.870547e-02 2.821207e-02 2.839068e-02 5.344311e-03 1.012018e-02 5.283425e-02 4.267536e-02 4.322083e-02 6.090180e-02 6.085852e-02 8.887832e-02 
    26.5                2.730563e-02 2.845895e-02 2.776865e-02 2.800647e-02 5.072891e-03 9.145328e-03 5.231694e-02 4.200261e-02 4.256279e-02 5.954136e-02 5.953333e-02 8.760245e-02 
    27.5                2.653492e-02 2.784260e-02 2.705767e-02 2.733056e-02 4.756608e-03 8.197046e-03 5.110567e-02 4.086416e-02 4.143102e-02 5.766238e-02 5.765199e-02 8.542438e-02 
    28.5                2.567392e-02 2.696172e-02 2.618902e-02 2.645929e-02 4.413528e-03 7.315735e-03 4.970969e-02 3.943104e-02 3.999878e-02 5.548201e-02 5.546899e-02 8.269019e-02 
    29.5                2.456897e-02 2.601916e-02 2.514693e-02 2.544951e-02 4.064662e-03 6.453759e-03 4.789637e-02 3.775260e-02 3.831672e-02 5.301132e-02 5.300230e-02 7.947024e-02 
    30.5                2.322022e-02 2.483382e-02 2.385580e-02 2.419616e-02 3.668093e-03 5.622917e-03 4.560201e-02 3.569826e-02 3.624806e-02 5.007329e-02 5.007524e-02 7.548133e-02 
    31.5                2.176192e-02 2.340770e-02 2.242018e-02 2.276539e-02 3.248095e-03 4.798450e-03 4.297803e-02 3.338038e-02 3.390865e-02 4.683357e-02 4.681908e-02 7.096482e-02 
    32.5                2.003398e-02 2.184362e-02 2.075059e-02 2.113324e-02 2.819629e-03 4.044732e-03 3.993089e-02 3.074344e-02 3.124245e-02 4.321091e-02 4.320246e-02 6.578544e-02 
    33.5                1.811172e-02 2.004761e-02 1.887955e-02 1.928807e-02 2.417137e-03 3.375981e-03 3.642426e-02 2.781791e-02 2.827670e-02 3.922635e-02 3.921774e-02 5.994685e-02 
    34.5                1.608044e-02 1.809141e-02 1.687003e-02 1.729624e-02 2.030032e-03 2.773251e-03 3.264244e-02 2.472553e-02 2.513882e-02 3.499807e-02 3.500237e-02 5.367275e-02 
    35.5                1.412486e-02 1.602918e-02 1.487075e-02 1.527465e-02 1.658578e-03 2.217014e-03 2.882211e-02 2.164673e-02 2.201467e-02 3.077568e-02 3.078330e-02 4.735891e-02 
    36.5                1.214584e-02 1.405232e-02 1.288161e-02 1.328899e-02 1.317259e-03 1.719716e-03 2.506675e-02 1.863812e-02 1.895766e-02 2.662920e-02 2.665469e-02 4.112985e-02 
    37.5                1.026264e-02 1.208889e-02 1.098338e-02 1.137257e-02 1.022285e-03 1.307749e-03 2.141315e-02 1.576495e-02 1.603879e-02 2.268153e-02 2.267591e-02 3.511296e-02 
    38.5                8.432436e-03 1.018768e-02 9.113197e-03 9.489018e-03 7.703407e-04 9.647112e-04 1.785105e-02 1.300138e-02 1.322771e-02 1.882483e-02 1.884159e-02 2.923424e-02 
    39.5                6.635357e-03 8.355496e-03 7.307083e-03 7.675064e-03 5.555189e-04 6.828649e-04 1.437133e-02 1.036295e-02 1.054101e-02 1.512670e-02 1.513438e-02 2.354026e-02 
    40.5                4.979007e-03 6.574275e-03 5.595422e-03 5.937307e-03 3.783651e-04 4.578026e-04 1.105748e-02 7.896559e-03 8.030771e-03 1.162107e-02 1.164053e-02 1.813146e-02 
    41.5                3.560697e-03 4.936502e-03 4.085704e-03 4.381609e-03 2.417808e-04 2.888213e-04 8.103267e-03 5.740795e-03 5.835548e-03 8.517513e-03 8.546545e-03 1.332376e-02 
    42.5                2.412801e-03 3.532611e-03 2.836778e-03 3.078065e-03 1.440200e-04 1.704077e-04 5.660901e-03 3.969405e-03 4.033430e-03 5.941341e-03 5.971123e-03 9.314818e-03 
    43.5                1.501975e-03 2.398050e-03 1.842530e-03 2.035659e-03 7.912059e-05 9.296625e-05 3.706196e-03 2.574084e-03 2.613940e-03 3.891012e-03 3.912316e-03 6.108804e-03 
    44.5                8.209500e-04 1.500885e-03 1.073619e-03 1.220588e-03 3.838270e-05 4.510287e-05 2.179609e-03 1.511482e-03 1.532283e-03 2.299600e-03 2.326929e-03 3.625291e-03 
    45.5                3.728450e-04 8.251602e-04 5.357464e-04 6.338425e-04 1.563271e-05 1.845056e-05 1.103860e-03 7.676219e-04 7.763249e-04 1.171477e-03 1.199699e-03 1.859423e-03 
    46.5                1.263402e-04 3.777091e-04 2.146344e-04 2.692745e-04 5.050314e-06 6.041660e-06 4.459570e-04 3.175058e-04 3.201255e-04 4.844340e-04 5.045012e-04 7.758782e-04 
    47.5                2.983530e-05 1.294377e-04 6.218900e-05 8.419224e-05 1.150851e-06 1.421334e-06 1.309432e-04 9.765465e-05 9.772868e-05 1.464903e-04 1.593513e-04 2.400715e-04 
    48.5                4.375528e-06 3.101831e-05 1.236158e-05 1.830921e-05 1.635755e-07 2.125019e-07 2.632592e-05 2.097715e-05 2.085706e-05 3.068220e-05 3.540117e-05 5.188682e-05 
    49.5                1.511112e-07 4.425810e-06 1.290789e-06 2.261608e-06 1.179815e-08 1.723692e-08 2.815098e-06 2.580732e-06 2.535903e-06 3.553055e-06 4.577218e-06 6.383525e-06 
    50.5                0.000000e+00 1.317439e-07 2.163494e-08 5.456361e-08 8.416737e-11 2.178881e-10 5.294183e-08 6.667598e-08 6.387135e-08 7.620177e-08 1.317447e-07 1.635335e-07 
    51.5                0.000000e+00 0.000000e+00 0.000000e+00 0.000000e+00 0.000000e+00 0.000000e+00 0.000000e+00 0.000000e+00 0.000000e+00 0.000000e+00 0.000000e+00 0.000000e+00 
    52.5                0.000000e+00 0.000000e+00 0.000000e+00 0.000000e+00 0.000000e+00 0.000000e+00 0.000000e+00 0.000000e+00 0.000000e+00 0.000000e+00 0.000000e+00 0.000000e+00 
    53.5                0.000000e+00 0.000000e+00 0.000000e+00 0.000000e+00 0.000000e+00 0.000000e+00 0.000000e+00 0.000000e+00 0.000000e+00 0.000000e+00 0.000000e+00 0.000000e+00 
    54.5                0.000000e+00 0.000000e+00 0.000000e+00 0.000000e+00 0.000000e+00 0.000000e+00 0.000000e+00 0.000000e+00 0.000000e+00 0.000000e+00 0.000000e+00 0.000000e+00 
    55.5                0.000000e+00 0.000000e+00 0.000000e+00 0.000000e+00 0.000000e+00 0.000000e+00 0.000000e+00 0.000000e+00 0.000000e+00 0.000000e+00 0.000000e+00 0.000000e+00 
    56.5                0.000000e+00 0.000000e+00 0.000000e+00 0.000000e+00 0.000000e+00 0.000000e+00 0.000000e+00 0.000000e+00 0.000000e+00 0.000000e+00 0.000000e+00 0.000000e+00 
    57.5                0.000000e+00 0.000000e+00 0.000000e+00 0.000000e+00 0.000000e+00 0.000000e+00 0.000000e+00 0.000000e+00 0.000000e+00 0.000000e+00 0.000000e+00 0.000000e+00 
    58.5                0.000000e+00 0.000000e+00 0.000000e+00 0.000000e+00 0.000000e+00 0.000000e+00 0.000000e+00 0.000000e+00 0.000000e+00 0.000000e+00 0.000000e+00 0.000000e+00 
    59.5                0.000000e+00 0.000000e+00 0.000000e+00 0.000000e+00 0.000000e+00 0.000000e+00 0.000000e+00 0.000000e+00 0.000000e+00 0.000000e+00 0.000000e+00 0.000000e+00 
    60.5                0.000000e+00 0.000000e+00 0.000000e+00 0.000000e+00 0.000000e+00 0.000000e+00 0.000000e+00 0.000000e+00 0.000000e+00 0.000000e+00 0.000000e+00 0.000000e+00 
    61.5                0.000000e+00 0.000000e+00 0.000000e+00 0.000000e+00 0.000000e+00 0.000000e+00 0.000000e+00 0.000000e+00 0.000000e+00 0.000000e+00 0.000000e+00 0.000000e+00 
    62.5                0.000000e+00 0.000000e+00 0.000000e+00 0.000000e+00 0.000000e+00 0.000000e+00 0.000000e+00 0.000000e+00 0.000000e+00 0.000000e+00 0.000000e+00 0.000000e+00 
    63.5                0.000000e+00 0.000000e+00 0.000000e+00 0.000000e+00 0.000000e+00 0.000000e+00 0.000000e+00 0.000000e+00 0.000000e+00 0.000000e+00 0.000000e+00 0.000000e+00 
    64.5                0.000000e+00 0.000000e+00 0.000000e+00 0.000000e+00 0.000000e+00 0.000000e+00 0.000000e+00 0.000000e+00 0.000000e+00 0.000000e+00 0.000000e+00 0.000000e+00 
    65.5                0.000000e+00 0.000000e+00 0.000000e+00 0.000000e+00 0.000000e+00 0.000000e+00 0.000000e+00 0.000000e+00 0.000000e+00 0.000000e+00 0.000000e+00 0.000000e+00 
    66.5                0.000000e+00 0.000000e+00 0.000000e+00 0.000000e+00 0.000000e+00 0.000000e+00 0.000000e+00 0.000000e+00 0.000000e+00 0.000000e+00 0.000000e+00 0.000000e+00 
    67.5                0.000000e+00 0.000000e+00 0.000000e+00 0.000000e+00 0.000000e+00 0.000000e+00 0.000000e+00 0.000000e+00 0.000000e+00 0.000000e+00 0.000000e+00 0.000000e+00 
    68.5                0.000000e+00 0.000000e+00 0.000000e+00 0.000000e+00 0.000000e+00 0.000000e+00 0.000000e+00 0.000000e+00 0.000000e+00 0.000000e+00 0.000000e+00 0.000000e+00 
    69.5                0.000000e+00 0.000000e+00 0.000000e+00 0.000000e+00 0.000000e+00 0.000000e+00 0.000000e+00 0.000000e+00 0.000000e+00 0.000000e+00 0.000000e+00 0.000000e+00 
    70.5                0.000000e+00 0.000000e+00 0.000000e+00 0.000000e+00 0.000000e+00 0.000000e+00 0.000000e+00 0.000000e+00 0.000000e+00 0.000000e+00 0.000000e+00 0.000000e+00 
    71.5                0.000000e+00 0.000000e+00 0.000000e+00 0.000000e+00 0.000000e+00 0.000000e+00 0.000000e+00 0.000000e+00 0.000000e+00 0.000000e+00 0.000000e+00 0.000000e+00 
    72.5                0.000000e+00 0.000000e+00 0.000000e+00 0.000000e+00 0.000000e+00 0.000000e+00 0.000000e+00 0.000000e+00 0.000000e+00 0.000000e+00 0.000000e+00 0.000000e+00 
    73.5                0.000000e+00 0.000000e+00 0.000000e+00 0.000000e+00 0.000000e+00 0.000000e+00 0.000000e+00 0.000000e+00 0.000000e+00 0.000000e+00 0.000000e+00 0.000000e+00 
    74.5                0.000000e+00 0.000000e+00 0.000000e+00 0.000000e+00 0.000000e+00 0.000000e+00 0.000000e+00 0.000000e+00 0.000000e+00 0.000000e+00 0.000000e+00 0.000000e+00 
    75.5                0.000000e+00 0.000000e+00 0.000000e+00 0.000000e+00 0.000000e+00 0.000000e+00 0.000000e+00 0.000000e+00 0.000000e+00 0.000000e+00 0.000000e+00 0.000000e+00 
    76.5                0.000000e+00 0.000000e+00 0.000000e+00 0.000000e+00 0.000000e+00 0.000000e+00 0.000000e+00 0.000000e+00 0.000000e+00 0.000000e+00 0.000000e+00 0.000000e+00 
    77.5                0.000000e+00 0.000000e+00 0.000000e+00 0.000000e+00 0.000000e+00 0.000000e+00 0.000000e+00 0.000000e+00 0.000000e+00 0.000000e+00 0.000000e+00 0.000000e+00 
    78.5                0.000000e+00 0.000000e+00 0.000000e+00 0.000000e+00 0.000000e+00 0.000000e+00 0.000000e+00 0.000000e+00 0.000000e+00 0.000000e+00 0.000000e+00 0.000000e+00 
    79.5                0.000000e+00 0.000000e+00 0.000000e+00 0.000000e+00 0.000000e+00 0.000000e+00 0.000000e+00 0.000000e+00 0.000000e+00 0.000000e+00 0.000000e+00 0.000000e+00 


