# 80 rows of flux data
# 12 columns of flux data
# 
# total cross-sectional flux  9.903523e-01 /m^2/yr
#
#                             +x ram      -x wake      +y port -y starboard    +z zenith     -z nadir        Earth          Sun     anti-Sun      rot (x)      rot (y)      rot (z) 
# average speed (km/s)         37.74        37.76        31.72        31.72        38.06        30.63        37.77        28.25        28.25        33.90        37.88        33.93 
# total flux (#/m2/yr)  2.273514e-01 2.272997e-01 3.110210e-01 3.109972e-01 4.247409e-01 3.829158e-04 2.268526e-01 1.545155e-01 1.544285e-01 8.165949e-01 6.948034e-01 8.326796e-01 
# velocity (km/s)
     0.5                0.000000e+00 0.000000e+00 0.000000e+00 0.000000e+00 0.000000e+00 0.000000e+00 0.000000e+00 0.000000e+00 0.000000e+00 0.000000e+00 0.000000e+00 0.000000e+00 
     1.5                0.000000e+00 0.000000e+00 0.000000e+00 0.000000e+00 0.000000e+00 0.000000e+00 0.000000e+00 0.000000e+00 0.000000e+00 0.000000e+00 0.000000e+00 0.000000e+00 
     2.5                8.902517e-05 9.016996e-05 7.415884e-05 7.413518e-05 2.063455e-04 2.935878e-08 8.956672e-05 9.329206e-05 9.318958e-05 2.750151e-04 3.015912e-04 2.573023e-04 
     3.5                4.598163e-04 4.598987e-04 3.987024e-04 3.985994e-04 9.026120e-04 3.335342e-07 4.572738e-04 4.730675e-04 4.727233e-04 1.321658e-03 1.434678e-03 1.338148e-03 
     4.5                8.937148e-04 8.925070e-04 8.483653e-04 8.484533e-04 1.659453e-03 8.951601e-07 8.875071e-04 9.531618e-04 9.527269e-04 2.626019e-03 2.720361e-03 2.719760e-03 
     5.5                1.353751e-03 1.352073e-03 1.387178e-03 1.387239e-03 2.487152e-03 1.558210e-06 1.344483e-03 1.496169e-03 1.495554e-03 4.121704e-03 4.102244e-03 4.278235e-03 
     6.5                1.788394e-03 1.785395e-03 2.023261e-03 2.023074e-03 3.244085e-03 2.502527e-06 1.776124e-03 2.009347e-03 2.008640e-03 5.736811e-03 5.389908e-03 5.959509e-03 
     7.5                2.205633e-03 2.201417e-03 2.755838e-03 2.755572e-03 3.984369e-03 3.462273e-06 2.190584e-03 2.516267e-03 2.515092e-03 7.502100e-03 6.636618e-03 7.771702e-03 
     8.5                2.578706e-03 2.574524e-03 3.392893e-03 3.392732e-03 4.652997e-03 4.457575e-06 2.562146e-03 2.987995e-03 2.986926e-03 9.064031e-03 7.755906e-03 9.370595e-03 
     9.5                2.879627e-03 2.874540e-03 4.088096e-03 4.088164e-03 5.171627e-03 5.483701e-06 2.861318e-03 3.394687e-03 3.393565e-03 1.060734e-02 8.646010e-03 1.095406e-02 
    10.5                3.194672e-03 3.189412e-03 4.785053e-03 4.784818e-03 5.767492e-03 6.428316e-06 3.174750e-03 3.852804e-03 3.851254e-03 1.222137e-02 9.611942e-03 1.256967e-02 
    11.5                3.457674e-03 3.451544e-03 5.544698e-03 5.544680e-03 6.223192e-03 7.724199e-06 3.436821e-03 4.241103e-03 4.239077e-03 1.384498e-02 1.039471e-02 1.422851e-02 
    12.5                3.668330e-03 3.662781e-03 6.141156e-03 6.140775e-03 6.568059e-03 8.592724e-06 3.648262e-03 4.468275e-03 4.466600e-03 1.511380e-02 1.100209e-02 1.551738e-02 
    13.5                3.709135e-03 3.701892e-03 6.525278e-03 6.525263e-03 6.632393e-03 9.872389e-06 3.689396e-03 4.566316e-03 4.563717e-03 1.586432e-02 1.112048e-02 1.625805e-02 
    14.5                3.807901e-03 3.802550e-03 7.057856e-03 7.056900e-03 6.876684e-03 1.041832e-05 3.791118e-03 4.675647e-03 4.673247e-03 1.694163e-02 1.146681e-02 1.731499e-02 
    15.5                3.898701e-03 3.892310e-03 7.501143e-03 7.501130e-03 6.997354e-03 1.130732e-05 3.881167e-03 4.794403e-03 4.792017e-03 1.780954e-02 1.171113e-02 1.818751e-02 
    16.5                3.924492e-03 3.918785e-03 7.697023e-03 7.696815e-03 7.088470e-03 1.150607e-05 3.908461e-03 4.833266e-03 4.830738e-03 1.819628e-02 1.182220e-02 1.855547e-02 
    17.5                3.945511e-03 3.940519e-03 7.920166e-03 7.919595e-03 7.110599e-03 1.197758e-05 3.931269e-03 4.775953e-03 4.773305e-03 1.859507e-02 1.187546e-02 1.895581e-02 
    18.5                3.990630e-03 3.984484e-03 8.259220e-03 8.260426e-03 7.231473e-03 1.223174e-05 3.976074e-03 4.800633e-03 4.797820e-03 1.925662e-02 1.204028e-02 1.958847e-02 
    19.5                4.006369e-03 4.002263e-03 8.307523e-03 8.305815e-03 7.195707e-03 1.206813e-05 3.993872e-03 4.671232e-03 4.668847e-03 1.926200e-02 1.203975e-02 1.964022e-02 
    20.5                3.900822e-03 3.896728e-03 8.242857e-03 8.242745e-03 7.084927e-03 1.165304e-05 3.888726e-03 4.518208e-03 4.515484e-03 1.904935e-02 1.178221e-02 1.936095e-02 
    21.5                3.941188e-03 3.936307e-03 8.400543e-03 8.400905e-03 7.177887e-03 1.175020e-05 3.929378e-03 4.468767e-03 4.465993e-03 1.935495e-02 1.191845e-02 1.966602e-02 
    22.5                3.907441e-03 3.902441e-03 8.467717e-03 8.466957e-03 7.030259e-03 1.205878e-05 3.897263e-03 4.289858e-03 4.286985e-03 1.936737e-02 1.175341e-02 1.970652e-02 
    23.5                3.706096e-03 3.702872e-03 7.979071e-03 7.979394e-03 6.742039e-03 1.099335e-05 3.696859e-03 4.025683e-03 4.023724e-03 1.828907e-02 1.120464e-02 1.857541e-02 
    24.5                3.606434e-03 3.603496e-03 7.772440e-03 7.772247e-03 6.578802e-03 1.023883e-05 3.597552e-03 3.809026e-03 3.806343e-03 1.777230e-02 1.091256e-02 1.804865e-02 
    25.5                3.501444e-03 3.498926e-03 7.532469e-03 7.533304e-03 6.404495e-03 9.680324e-06 3.493021e-03 3.616556e-03 3.614670e-03 1.722766e-02 1.060943e-02 1.748183e-02 
    26.5                3.461035e-03 3.457735e-03 7.369646e-03 7.367421e-03 6.350878e-03 9.081456e-06 3.451921e-03 3.465952e-03 3.463607e-03 1.684124e-02 1.050196e-02 1.709254e-02 
    27.5                3.345155e-03 3.341902e-03 6.995052e-03 6.995357e-03 6.096381e-03 8.355203e-06 3.335555e-03 3.239358e-03 3.237258e-03 1.598519e-02 1.011753e-02 1.624437e-02 
    28.5                3.238990e-03 3.238819e-03 6.758523e-03 6.758955e-03 5.960776e-03 7.851689e-06 3.233472e-03 2.984730e-03 2.982796e-03 1.544782e-02 9.842038e-03 1.567167e-02 
    29.5                3.029129e-03 3.026672e-03 6.308969e-03 6.307977e-03 5.530853e-03 7.295312e-06 3.022083e-03 2.701831e-03 2.700234e-03 1.438354e-02 9.167784e-03 1.461305e-02 
    30.5                2.913996e-03 2.912819e-03 6.126141e-03 6.126001e-03 5.389213e-03 6.820529e-06 2.908501e-03 2.560500e-03 2.558687e-03 1.394455e-02 8.873860e-03 1.413714e-02 
    31.5                2.902720e-03 2.900528e-03 5.961534e-03 5.961036e-03 5.369657e-03 6.462538e-06 2.896509e-03 2.390803e-03 2.389275e-03 1.360573e-02 8.837248e-03 1.378223e-02 
    32.5                2.775590e-03 2.774846e-03 5.520490e-03 5.519732e-03 5.154206e-03 5.843652e-06 2.770581e-03 2.189859e-03 2.188415e-03 1.268024e-02 8.465704e-03 1.285105e-02 
    33.5                2.812389e-03 2.812658e-03 5.489890e-03 5.490232e-03 5.272784e-03 5.500865e-06 2.809115e-03 2.059432e-03 2.058032e-03 1.264884e-02 8.612857e-03 1.280948e-02 
    34.5                2.833806e-03 2.830434e-03 5.445076e-03 5.443691e-03 5.276191e-03 5.511069e-06 2.826901e-03 1.997614e-03 1.996081e-03 1.255409e-02 8.646079e-03 1.271603e-02 
    35.5                2.718462e-03 2.720926e-03 4.967972e-03 4.968899e-03 5.088821e-03 4.927019e-06 2.716092e-03 1.842930e-03 1.841866e-03 1.159258e-02 8.319842e-03 1.174359e-02 
    36.5                2.760709e-03 2.759640e-03 5.012046e-03 5.010505e-03 5.195307e-03 4.798864e-06 2.756799e-03 1.745658e-03 1.744392e-03 1.170265e-02 8.470377e-03 1.185421e-02 
    37.5                2.818551e-03 2.820168e-03 4.950990e-03 4.950934e-03 5.347467e-03 4.826485e-06 2.816331e-03 1.699656e-03 1.698493e-03 1.169669e-02 8.683474e-03 1.180741e-02 
    38.5                2.980656e-03 2.980565e-03 4.975564e-03 4.975225e-03 5.741305e-03 4.584965e-06 2.977545e-03 1.651540e-03 1.650571e-03 1.194371e-02 9.231983e-03 1.203592e-02 
    39.5                2.938314e-03 2.942401e-03 4.796221e-03 4.796100e-03 5.526106e-03 4.571600e-06 2.938821e-03 1.588961e-03 1.587897e-03 1.150403e-02 9.014352e-03 1.167524e-02 
    40.5                2.978700e-03 2.980897e-03 4.775050e-03 4.774625e-03 5.696361e-03 4.453078e-06 2.976899e-03 1.523027e-03 1.522214e-03 1.156894e-02 9.208275e-03 1.167206e-02 
    41.5                3.265488e-03 3.268789e-03 4.843658e-03 4.843257e-03 6.289685e-03 4.418372e-06 3.264495e-03 1.563991e-03 1.563088e-03 1.205761e-02 1.011557e-02 1.215855e-02 
    42.5                3.230046e-03 3.228437e-03 4.549123e-03 4.548254e-03 6.103476e-03 4.377393e-06 3.224169e-03 1.506853e-03 1.505676e-03 1.145575e-02 9.925904e-03 1.162080e-02 
    43.5                3.306799e-03 3.309428e-03 4.461296e-03 4.462020e-03 6.456063e-03 4.035807e-06 3.303631e-03 1.494511e-03 1.493470e-03 1.153477e-02 1.031230e-02 1.159587e-02 
    44.5                3.665790e-03 3.667198e-03 4.776504e-03 4.776837e-03 7.101446e-03 4.355271e-06 3.663135e-03 1.575113e-03 1.574089e-03 1.244498e-02 1.138943e-02 1.256304e-02 
    45.5                3.658097e-03 3.661695e-03 4.582885e-03 4.581794e-03 7.061138e-03 4.301487e-06 3.656319e-03 1.506499e-03 1.505528e-03 1.212082e-02 1.134747e-02 1.223702e-02 
    46.5                3.770721e-03 3.765285e-03 4.508243e-03 4.508293e-03 7.238540e-03 4.245950e-06 3.759453e-03 1.507856e-03 1.506946e-03 1.216000e-02 1.165673e-02 1.229499e-02 
    47.5                3.921744e-03 3.926425e-03 4.451660e-03 4.452009e-03 7.722479e-03 4.279348e-06 3.920740e-03 1.563096e-03 1.562067e-03 1.243895e-02 1.228808e-02 1.244643e-02 
    48.5                4.365842e-03 4.367896e-03 4.571885e-03 4.570775e-03 8.470724e-03 4.349049e-06 4.360759e-03 1.603054e-03 1.601978e-03 1.314855e-02 1.356320e-02 1.329206e-02 
    49.5                4.637692e-03 4.645388e-03 4.717045e-03 4.716660e-03 9.300264e-03 4.513605e-06 4.637580e-03 1.681515e-03 1.680724e-03 1.398452e-02 1.465002e-02 1.390803e-02 
    50.5                5.340800e-03 5.353773e-03 4.926765e-03 4.927346e-03 1.065746e-02 4.864871e-06 5.344197e-03 1.782740e-03 1.781634e-03 1.536237e-02 1.682244e-02 1.528860e-02 
    51.5                6.000375e-03 6.010916e-03 5.015179e-03 5.014230e-03 1.174239e-02 5.369814e-06 6.000933e-03 1.852466e-03 1.851337e-03 1.636913e-02 1.872413e-02 1.648404e-02 
    52.5                6.079200e-03 6.082341e-03 4.719714e-03 4.719341e-03 1.174612e-02 5.444863e-06 6.073081e-03 1.875244e-03 1.874116e-03 1.598608e-02 1.885331e-02 1.622484e-02 
    53.5                6.192800e-03 6.196488e-03 4.543088e-03 4.541362e-03 1.191026e-02 5.363554e-06 6.187518e-03 1.879164e-03 1.878195e-03 1.588395e-02 1.915775e-02 1.618136e-02 
    54.5                5.915536e-03 5.916879e-03 4.188705e-03 4.188532e-03 1.122218e-02 5.247996e-06 5.907263e-03 1.836071e-03 1.835033e-03 1.483451e-02 1.820602e-02 1.524842e-02 
    55.5                5.900144e-03 5.905478e-03 4.060183e-03 4.058376e-03 1.132197e-02 4.908891e-06 5.895762e-03 1.815040e-03 1.814033e-03 1.472481e-02 1.823017e-02 1.506647e-02 
    56.5                5.688623e-03 5.691231e-03 3.828455e-03 3.827819e-03 1.079213e-02 4.885116e-06 5.682207e-03 1.754610e-03 1.753646e-03 1.399087e-02 1.749233e-02 1.439976e-02 
    57.5                5.205139e-03 5.208065e-03 3.348156e-03 3.348118e-03 9.851605e-03 4.483093e-06 5.199848e-03 1.626028e-03 1.625164e-03 1.258643e-02 1.600203e-02 1.297895e-02 
    58.5                4.985917e-03 4.986542e-03 3.105656e-03 3.105257e-03 9.451023e-03 4.093689e-06 4.978429e-03 1.496718e-03 1.495933e-03 1.191319e-02 1.531609e-02 1.229212e-02 
    59.5                4.758584e-03 4.758613e-03 2.866365e-03 2.864960e-03 9.014241e-03 3.867381e-06 4.751300e-03 1.364487e-03 1.363922e-03 1.124680e-02 1.461390e-02 1.160009e-02 
    60.5                4.329399e-03 4.335636e-03 2.493147e-03 2.492221e-03 8.196128e-03 3.585526e-06 4.328973e-03 1.193834e-03 1.193093e-03 1.009141e-02 1.330863e-02 1.042459e-02 
    61.5                3.916241e-03 3.917423e-03 2.098529e-03 2.097836e-03 7.145186e-03 3.310208e-06 3.911530e-03 1.037518e-03 1.037029e-03 8.717857e-03 1.182746e-02 9.236282e-03 
    62.5                3.194574e-03 3.187679e-03 1.659992e-03 1.659336e-03 5.849810e-03 2.669387e-06 3.183408e-03 8.616659e-04 8.610635e-04 7.056927e-03 9.659770e-03 7.474686e-03 
    63.5                2.614685e-03 2.614084e-03 1.314470e-03 1.313597e-03 4.772697e-03 2.191577e-06 2.610377e-03 6.957690e-04 6.954357e-04 5.714371e-03 7.897230e-03 6.066013e-03 
    64.5                2.091220e-03 2.090230e-03 1.017461e-03 1.016878e-03 3.817476e-03 1.746417e-06 2.087194e-03 5.333266e-04 5.330462e-04 4.530758e-03 6.321325e-03 4.812238e-03 
    65.5                1.644237e-03 1.642537e-03 7.470209e-04 7.467826e-04 2.915080e-03 1.384976e-06 1.640329e-03 3.916434e-04 3.914818e-04 3.429429e-03 4.900930e-03 3.726426e-03 
    66.5                1.193922e-03 1.191820e-03 5.131475e-04 5.128390e-04 2.073259e-03 1.030896e-06 1.190492e-03 2.640576e-04 2.639066e-04 2.420564e-03 3.526215e-03 2.673514e-03 
    67.5                7.788472e-04 7.778248e-04 3.084391e-04 3.081145e-04 1.328786e-03 7.027340e-07 7.770792e-04 1.578850e-04 1.578168e-04 1.532183e-03 2.285177e-03 1.717285e-03 
    68.5                4.683283e-04 4.677504e-04 1.642059e-04 1.639487e-04 7.476243e-04 4.405043e-07 4.673625e-04 8.030360e-05 8.026272e-05 8.544080e-04 1.334900e-03 1.012677e-03 
    69.5                2.233816e-04 2.221536e-04 6.631501e-05 6.616408e-05 3.305930e-04 2.262566e-07 2.221320e-04 3.179422e-05 3.176040e-05 3.732562e-04 6.168398e-04 4.721632e-04 
    70.5                7.120324e-05 7.068615e-05 1.614903e-05 1.607602e-05 8.483621e-05 9.321116e-08 7.066406e-05 7.948541e-06 7.938409e-06 9.607173e-05 1.824731e-04 1.468379e-04 
    71.5                1.159354e-05 1.146420e-05 1.679724e-06 1.669024e-06 1.121360e-05 1.874163e-08 1.145839e-05 1.048754e-06 1.046255e-06 1.246707e-05 2.794486e-05 2.338875e-05 
    72.5                6.784553e-07 6.701339e-07 4.097884e-08 3.999932e-08 2.462589e-07 1.827055e-09 6.686402e-07 3.230974e-08 3.208208e-08 2.830182e-07 1.389296e-06 1.352265e-06 
    73.5                0.000000e+00 0.000000e+00 0.000000e+00 0.000000e+00 0.000000e+00 0.000000e+00 0.000000e+00 0.000000e+00 0.000000e+00 0.000000e+00 0.000000e+00 0.000000e+00 
    74.5                0.000000e+00 0.000000e+00 0.000000e+00 0.000000e+00 0.000000e+00 0.000000e+00 0.000000e+00 0.000000e+00 0.000000e+00 0.000000e+00 0.000000e+00 0.000000e+00 
    75.5                0.000000e+00 0.000000e+00 0.000000e+00 0.000000e+00 0.000000e+00 0.000000e+00 0.000000e+00 0.000000e+00 0.000000e+00 0.000000e+00 0.000000e+00 0.000000e+00 
    76.5                0.000000e+00 0.000000e+00 0.000000e+00 0.000000e+00 0.000000e+00 0.000000e+00 0.000000e+00 0.000000e+00 0.000000e+00 0.000000e+00 0.000000e+00 0.000000e+00 
    77.5                0.000000e+00 0.000000e+00 0.000000e+00 0.000000e+00 0.000000e+00 0.000000e+00 0.000000e+00 0.000000e+00 0.000000e+00 0.000000e+00 0.000000e+00 0.000000e+00 
    78.5                0.000000e+00 0.000000e+00 0.000000e+00 0.000000e+00 0.000000e+00 0.000000e+00 0.000000e+00 0.000000e+00 0.000000e+00 0.000000e+00 0.000000e+00 0.000000e+00 
    79.5                0.000000e+00 0.000000e+00 0.000000e+00 0.000000e+00 0.000000e+00 0.000000e+00 0.000000e+00 0.000000e+00 0.000000e+00 0.000000e+00 0.000000e+00 0.000000e+00 


