# 80 rows of flux data
# 12 columns of flux data
# 
# total cross-sectional flux  1.055573e+00 /m^2/yr
#
#                             +x ram      -x wake      +y port -y starboard    +z zenith     -z nadir        Earth          Sun     anti-Sun      rot (x)      rot (y)      rot (z) 
# average speed (km/s)         38.00        36.75        30.60        32.35        37.38        30.63        37.51        27.62        28.07        33.57        37.34        33.62 
# total flux (#/m2/yr)  2.199039e-01 2.618635e-01 3.368118e-01 3.197194e-01 4.639677e-01 3.875715e-04 4.625294e-01 1.637985e-01 1.760711e-01 8.726767e-01 7.464509e-01 8.805027e-01 
# velocity (km/s)
     0.5                0.000000e+00 0.000000e+00 0.000000e+00 0.000000e+00 0.000000e+00 0.000000e+00 0.000000e+00 0.000000e+00 0.000000e+00 0.000000e+00 0.000000e+00 0.000000e+00 
     1.5                0.000000e+00 0.000000e+00 0.000000e+00 0.000000e+00 0.000000e+00 0.000000e+00 0.000000e+00 0.000000e+00 0.000000e+00 0.000000e+00 0.000000e+00 0.000000e+00 
     2.5                1.189220e-04 2.549820e-05 7.131059e-05 7.097241e-05 1.554795e-04 6.758932e-08 1.548376e-04 7.143344e-05 8.146093e-05 2.367069e-04 2.381678e-04 2.255754e-04 
     3.5                4.727329e-04 3.157472e-04 3.328688e-04 3.470875e-04 8.163500e-04 3.703380e-07 8.138671e-04 3.863011e-04 4.308541e-04 1.175245e-03 1.267535e-03 1.150906e-03 
     4.5                8.494658e-04 9.158116e-04 7.761825e-04 8.126844e-04 1.756806e-03 8.851000e-07 1.751767e-03 9.113605e-04 9.637256e-04 2.618681e-03 2.778784e-03 2.624843e-03 
     5.5                1.273547e-03 1.593937e-03 1.358187e-03 1.405039e-03 2.785921e-03 1.554908e-06 2.776365e-03 1.543984e-03 1.612937e-03 4.338617e-03 4.459100e-03 4.393523e-03 
     6.5                1.660237e-03 2.298181e-03 2.139092e-03 2.129556e-03 3.815703e-03 2.513319e-06 3.797800e-03 2.205941e-03 2.266742e-03 6.338225e-03 6.132122e-03 6.427422e-03 
     7.5                2.042901e-03 2.891360e-03 2.967750e-03 2.887405e-03 4.745478e-03 3.462175e-06 4.719373e-03 2.803454e-03 2.877579e-03 8.322824e-03 7.637528e-03 8.440307e-03 
     8.5                2.390738e-03 3.439579e-03 3.819841e-03 3.617340e-03 5.571832e-03 4.544998e-06 5.534186e-03 3.371858e-03 3.426538e-03 1.024532e-02 8.998434e-03 1.039181e-02 
     9.5                2.662199e-03 3.872122e-03 4.625986e-03 4.311704e-03 6.276667e-03 5.464555e-06 6.228603e-03 3.848821e-03 3.922354e-03 1.200622e-02 1.011153e-02 1.214249e-02 
    10.5                2.974692e-03 4.225234e-03 5.445802e-03 4.987290e-03 6.885943e-03 6.492680e-06 6.825616e-03 4.288725e-03 4.400019e-03 1.369315e-02 1.111858e-02 1.386107e-02 
    11.5                3.215823e-03 4.616383e-03 6.449019e-03 5.763452e-03 7.507620e-03 7.812336e-06 7.430725e-03 4.740408e-03 4.895111e-03 1.565547e-02 1.211066e-02 1.580519e-02 
    12.5                3.398130e-03 4.897234e-03 7.172125e-03 6.355312e-03 7.952968e-03 8.649074e-06 7.865623e-03 5.049136e-03 5.244542e-03 1.706447e-02 1.283076e-02 1.722752e-02 
    13.5                3.434753e-03 5.080470e-03 7.923625e-03 6.820985e-03 8.123531e-03 9.908079e-06 8.020535e-03 5.186133e-03 5.394862e-03 1.826756e-02 1.314044e-02 1.844129e-02 
    14.5                3.569059e-03 4.974978e-03 8.318445e-03 7.076645e-03 8.178850e-03 1.043060e-05 8.066643e-03 5.231689e-03 5.462785e-03 1.887544e-02 1.320783e-02 1.902929e-02 
    15.5                3.635420e-03 5.148927e-03 9.026001e-03 7.610513e-03 8.418623e-03 1.131504e-05 8.296851e-03 5.338127e-03 5.597962e-03 2.010412e-02 1.358897e-02 2.025043e-02 
    16.5                3.687055e-03 5.102975e-03 9.232195e-03 7.728071e-03 8.403525e-03 1.166973e-05 8.276524e-03 5.349185e-03 5.614308e-03 2.037308e-02 1.358355e-02 2.051913e-02 
    17.5                3.701118e-03 5.121628e-03 9.524819e-03 7.932870e-03 8.449892e-03 1.208309e-05 8.319254e-03 5.306075e-03 5.588529e-03 2.082447e-02 1.364620e-02 2.096100e-02 
    18.5                3.768066e-03 5.088192e-03 9.803751e-03 8.156261e-03 8.483607e-03 1.235648e-05 8.350957e-03 5.256991e-03 5.561428e-03 2.126499e-02 1.370056e-02 2.140158e-02 
    19.5                3.751776e-03 5.045464e-03 9.827181e-03 8.228243e-03 8.479894e-03 1.210173e-05 8.351299e-03 5.133799e-03 5.451403e-03 2.130505e-02 1.365252e-02 2.139669e-02 
    20.5                3.697001e-03 4.966321e-03 9.694719e-03 8.141377e-03 8.272309e-03 1.188285e-05 8.148784e-03 4.944927e-03 5.261760e-03 2.094133e-02 1.338080e-02 2.108471e-02 
    21.5                3.747015e-03 4.814260e-03 9.779075e-03 8.184134e-03 8.218032e-03 1.198067e-05 8.094444e-03 4.797897e-03 5.121321e-03 2.099902e-02 1.326052e-02 2.110137e-02 
    22.5                3.671456e-03 4.882050e-03 9.914761e-03 8.320995e-03 8.252754e-03 1.194859e-05 8.131630e-03 4.666081e-03 5.003410e-03 2.122068e-02 1.328144e-02 2.130675e-02 
    23.5                3.521807e-03 4.654265e-03 9.348979e-03 7.892381e-03 7.797204e-03 1.115427e-05 7.686557e-03 4.367592e-03 4.682750e-03 2.003758e-02 1.262452e-02 2.015993e-02 
    24.5                3.437507e-03 4.382901e-03 8.906196e-03 7.589796e-03 7.502183e-03 1.035215e-05 7.401448e-03 4.100813e-03 4.404857e-03 1.915889e-02 1.210694e-02 1.925096e-02 
    25.5                3.347310e-03 4.288483e-03 8.675322e-03 7.439250e-03 7.298140e-03 1.003313e-05 7.204616e-03 3.871825e-03 4.169963e-03 1.867222e-02 1.180036e-02 1.877019e-02 
    26.5                3.319031e-03 4.102031e-03 8.285809e-03 7.198318e-03 7.129935e-03 9.300162e-06 7.046978e-03 3.660310e-03 3.951173e-03 1.797241e-02 1.149853e-02 1.804676e-02 
    27.5                3.184278e-03 4.033601e-03 7.888391e-03 6.950390e-03 6.930327e-03 8.579155e-06 6.858251e-03 3.454957e-03 3.733942e-03 1.723019e-02 1.118004e-02 1.730690e-02 
    28.5                3.114685e-03 3.847906e-03 7.516725e-03 6.667251e-03 6.664935e-03 8.042019e-06 6.600702e-03 3.194906e-03 3.461384e-03 1.645674e-02 1.076798e-02 1.654339e-02 
    29.5                2.888625e-03 3.703565e-03 7.088666e-03 6.324389e-03 6.321806e-03 7.451070e-06 6.265277e-03 2.890732e-03 3.142177e-03 1.554798e-02 1.020111e-02 1.562072e-02 
    30.5                2.816367e-03 3.431165e-03 6.756933e-03 6.028450e-03 5.962720e-03 7.091539e-06 5.910574e-03 2.677289e-03 2.911838e-03 1.476841e-02 9.648363e-03 1.484637e-02 
    31.5                2.802823e-03 3.315641e-03 6.499743e-03 5.871745e-03 5.878252e-03 6.596477e-06 5.833419e-03 2.512290e-03 2.740434e-03 1.430542e-02 9.478511e-03 1.437095e-02 
    32.5                2.689380e-03 3.226096e-03 6.067786e-03 5.537191e-03 5.656798e-03 6.072788e-06 5.619346e-03 2.303736e-03 2.516664e-03 1.348041e-02 9.142637e-03 1.354690e-02 
    33.5                2.750956e-03 3.125518e-03 5.816548e-03 5.376467e-03 5.628053e-03 5.677487e-06 5.597923e-03 2.122060e-03 2.330651e-03 1.307088e-02 9.085944e-03 1.313638e-02 
    34.5                2.749211e-03 3.183505e-03 5.830298e-03 5.429012e-03 5.710040e-03 5.560197e-06 5.683885e-03 2.034076e-03 2.243009e-03 1.314558e-02 9.193373e-03 1.320662e-02 
    35.5                2.650216e-03 3.063427e-03 5.336218e-03 5.022491e-03 5.476472e-03 5.054615e-06 5.455077e-03 1.902015e-03 2.092796e-03 1.220414e-02 8.836950e-03 1.226930e-02 
    36.5                2.705694e-03 2.959950e-03 5.177958e-03 4.914480e-03 5.469910e-03 4.828286e-06 5.453680e-03 1.771665e-03 1.958566e-03 1.195289e-02 8.794562e-03 1.199730e-02 
    37.5                2.783405e-03 3.087076e-03 5.219362e-03 4.975841e-03 5.604888e-03 4.907965e-06 5.591405e-03 1.713803e-03 1.900390e-03 1.211124e-02 9.065631e-03 1.220369e-02 
    38.5                2.983244e-03 2.996257e-03 5.064251e-03 4.882661e-03 5.745966e-03 4.692137e-06 5.737633e-03 1.641361e-03 1.826173e-03 1.197677e-02 9.254100e-03 1.203877e-02 
    39.5                2.872126e-03 3.226056e-03 4.991560e-03 4.866948e-03 5.923643e-03 4.549895e-06 5.919863e-03 1.588810e-03 1.773095e-03 1.199780e-02 9.486455e-03 1.203214e-02 
    40.5                2.958684e-03 3.168736e-03 4.883261e-03 4.777321e-03 5.869016e-03 4.502035e-06 5.865853e-03 1.522985e-03 1.700596e-03 1.178312e-02 9.474883e-03 1.188232e-02 
    41.5                3.260000e-03 3.204124e-03 4.862725e-03 4.822186e-03 6.228561e-03 4.475133e-06 6.230690e-03 1.500598e-03 1.682061e-03 1.203219e-02 1.001718e-02 1.210687e-02 
    42.5                3.161109e-03 3.483964e-03 4.695085e-03 4.723747e-03 6.460980e-03 4.318921e-06 6.467249e-03 1.493028e-03 1.672746e-03 1.196405e-02 1.034433e-02 1.201064e-02 
    43.5                3.344108e-03 3.384154e-03 4.455600e-03 4.516934e-03 6.392850e-03 4.247868e-06 6.401552e-03 1.448407e-03 1.619616e-03 1.156090e-02 1.035417e-02 1.170568e-02 
    44.5                3.675287e-03 3.538891e-03 4.605373e-03 4.731493e-03 7.000013e-03 4.347368e-06 7.013308e-03 1.489476e-03 1.671797e-03 1.225334e-02 1.121839e-02 1.231674e-02 
    45.5                3.653833e-03 3.900922e-03 4.604540e-03 4.763975e-03 7.243985e-03 4.399904e-06 7.260769e-03 1.493000e-03 1.674631e-03 1.243030e-02 1.167406e-02 1.257185e-02 
    46.5                3.739366e-03 3.817724e-03 4.452332e-03 4.652268e-03 7.305179e-03 4.257274e-06 7.325045e-03 1.458099e-03 1.635855e-03 1.227074e-02 1.172657e-02 1.237838e-02 
    47.5                3.990951e-03 3.964722e-03 4.395178e-03 4.640913e-03 7.627804e-03 4.367174e-06 7.650019e-03 1.478201e-03 1.657460e-03 1.247222e-02 1.229511e-02 1.263285e-02 
    48.5                4.370181e-03 4.054451e-03 4.335386e-03 4.648781e-03 8.168646e-03 4.411332e-06 8.194807e-03 1.523283e-03 1.707701e-03 1.284741e-02 1.309060e-02 1.294031e-02 
    49.5                4.800770e-03 4.482784e-03 4.445557e-03 4.829096e-03 8.867532e-03 4.686048e-06 8.900892e-03 1.578772e-03 1.772582e-03 1.358011e-02 1.431381e-02 1.380699e-02 
    50.5                5.500298e-03 4.776647e-03 4.557566e-03 5.049627e-03 9.893043e-03 4.940071e-06 9.932511e-03 1.655682e-03 1.864970e-03 1.460326e-02 1.590704e-02 1.482034e-02 
    51.5                6.054448e-03 5.453021e-03 4.639734e-03 5.265895e-03 1.125325e-02 5.270048e-06 1.130189e-02 1.730932e-03 1.959532e-03 1.590858e-02 1.795241e-02 1.601285e-02 
    52.5                6.050795e-03 6.136936e-03 4.491229e-03 5.199659e-03 1.187294e-02 5.361659e-06 1.193077e-02 1.776109e-03 2.008717e-03 1.627785e-02 1.897067e-02 1.643255e-02 
    53.5                6.133388e-03 6.260404e-03 4.248091e-03 5.002197e-03 1.203309e-02 5.340766e-06 1.209516e-02 1.794648e-03 2.022937e-03 1.612280e-02 1.926044e-02 1.632402e-02 
    54.5                5.774234e-03 6.370857e-03 3.987894e-03 4.757099e-03 1.189211e-02 5.144286e-06 1.195480e-02 1.780059e-03 1.999043e-03 1.566503e-02 1.896074e-02 1.578314e-02 
    55.5                5.827140e-03 6.295866e-03 3.787240e-03 4.550978e-03 1.162172e-02 5.081026e-06 1.168314e-02 1.757039e-03 1.965550e-03 1.517096e-02 1.871697e-02 1.549247e-02 
    56.5                5.552700e-03 6.160241e-03 3.571785e-03 4.344045e-03 1.140901e-02 4.794829e-06 1.147045e-02 1.717524e-03 1.917559e-03 1.470392e-02 1.822690e-02 1.488758e-02 
    57.5                5.069459e-03 5.927869e-03 3.224836e-03 3.955833e-03 1.063660e-02 4.500627e-06 1.069575e-02 1.635389e-03 1.816454e-03 1.358185e-02 1.706546e-02 1.381406e-02 
    58.5                4.859860e-03 5.449290e-03 2.893543e-03 3.591236e-03 9.970085e-03 4.167594e-06 1.002708e-02 1.513895e-03 1.679446e-03 1.256830e-02 1.598904e-02 1.278425e-02 
    59.5                4.634603e-03 5.152810e-03 2.645753e-03 3.327345e-03 9.511478e-03 3.866420e-06 9.565801e-03 1.388913e-03 1.543424e-03 1.183924e-02 1.521045e-02 1.202337e-02 
    60.5                4.218382e-03 4.975675e-03 2.378881e-03 3.024551e-03 8.898245e-03 3.622832e-06 8.950843e-03 1.239153e-03 1.380137e-03 1.096578e-02 1.426295e-02 1.116108e-02 
    61.5                3.672140e-03 4.504541e-03 2.009585e-03 2.607323e-03 8.046937e-03 3.129141e-06 8.094541e-03 1.084881e-03 1.208816e-03 9.751011e-03 1.279668e-02 9.823593e-03 
    62.5                3.002627e-03 4.157543e-03 1.652650e-03 2.167897e-03 6.877331e-03 2.769063e-06 6.920483e-03 9.269007e-04 1.030048e-03 8.267488e-03 1.106458e-02 8.460611e-03 
    63.5                2.453410e-03 3.395447e-03 1.293454e-03 1.721157e-03 5.631081e-03 2.234884e-06 5.666750e-03 7.635661e-04 8.461749e-04 6.695665e-03 9.049861e-03 6.858996e-03 
    64.5                1.963007e-03 2.794876e-03 1.016468e-03 1.366238e-03 4.566011e-03 1.805898e-06 4.595400e-03 6.049290e-04 6.703039e-04 5.394255e-03 7.351594e-03 5.535362e-03 
    65.5                1.496733e-03 2.221070e-03 7.571926e-04 1.037080e-03 3.602801e-03 1.389412e-06 3.626667e-03 4.559588e-04 5.063908e-04 4.207610e-03 5.772521e-03 4.289769e-03 
    66.5                1.064383e-03 1.781709e-03 5.443080e-04 7.590630e-04 2.737273e-03 1.051106e-06 2.756066e-03 3.262574e-04 3.636301e-04 3.165090e-03 4.400954e-03 3.246155e-03 
    67.5                6.814181e-04 1.307239e-03 3.528542e-04 5.025364e-04 1.891545e-03 7.434209e-07 1.905147e-03 2.118036e-04 2.369621e-04 2.163979e-03 3.059467e-03 2.240003e-03 
    68.5                3.831109e-04 8.776233e-04 2.030641e-04 2.988452e-04 1.194429e-03 4.698945e-07 1.203425e-03 1.213192e-04 1.368016e-04 1.347894e-03 1.936260e-03 1.400289e-03 
    69.5                1.693800e-04 5.365821e-04 9.998417e-05 1.527870e-04 6.522751e-04 2.641686e-07 6.578420e-04 5.868373e-05 6.691970e-05 7.269324e-04 1.070251e-03 7.705166e-04 
    70.5                4.341110e-05 2.682631e-04 3.699992e-05 5.932129e-05 2.746571e-04 1.197976e-07 2.771703e-04 2.209004e-05 2.544332e-05 3.023644e-04 4.625652e-04 3.336545e-04 
    71.5                5.760677e-06 9.667947e-05 9.118969e-06 1.507630e-05 7.362714e-05 4.508363e-08 7.450843e-05 5.553022e-06 6.421042e-06 8.084627e-05 1.390510e-04 1.066772e-04 
    72.5                1.273976e-07 1.680825e-05 9.930731e-07 1.805675e-06 1.004847e-05 8.398673e-09 1.022243e-05 7.791148e-07 8.927227e-07 1.088371e-05 2.145634e-05 1.727843e-05 
    73.5                0.000000e+00 1.282543e-06 2.935134e-08 6.966717e-08 4.814293e-07 7.903728e-10 4.959442e-07 3.178467e-08 3.702960e-08 5.069696e-07 1.421152e-06 1.288059e-06 
    74.5                0.000000e+00 0.000000e+00 0.000000e+00 0.000000e+00 0.000000e+00 0.000000e+00 0.000000e+00 0.000000e+00 0.000000e+00 0.000000e+00 0.000000e+00 0.000000e+00 
    75.5                0.000000e+00 0.000000e+00 0.000000e+00 0.000000e+00 0.000000e+00 0.000000e+00 0.000000e+00 0.000000e+00 0.000000e+00 0.000000e+00 0.000000e+00 0.000000e+00 
    76.5                0.000000e+00 0.000000e+00 0.000000e+00 0.000000e+00 0.000000e+00 0.000000e+00 0.000000e+00 0.000000e+00 0.000000e+00 0.000000e+00 0.000000e+00 0.000000e+00 
    77.5                0.000000e+00 0.000000e+00 0.000000e+00 0.000000e+00 0.000000e+00 0.000000e+00 0.000000e+00 0.000000e+00 0.000000e+00 0.000000e+00 0.000000e+00 0.000000e+00 
    78.5                0.000000e+00 0.000000e+00 0.000000e+00 0.000000e+00 0.000000e+00 0.000000e+00 0.000000e+00 0.000000e+00 0.000000e+00 0.000000e+00 0.000000e+00 0.000000e+00 
    79.5                0.000000e+00 0.000000e+00 0.000000e+00 0.000000e+00 0.000000e+00 0.000000e+00 0.000000e+00 0.000000e+00 0.000000e+00 0.000000e+00 0.000000e+00 0.000000e+00 


