# 80 rows of flux data
# 12 columns of flux data
# 
# total cross-sectional flux  2.306382e+00 /m^2/yr
#
#                             +x ram      -x wake      +y port -y starboard    +z zenith     -z nadir        Earth          Sun     anti-Sun      rot (x)      rot (y)      rot (z) 
# average speed (km/s)         24.48        24.47        17.12        25.02        24.28        23.44        24.47        24.98        24.98        23.97        24.40        24.36 
# total flux (#/m2/yr)  7.023048e-01 7.017972e-01 1.124101e-01 9.398121e-01 1.039382e+00 7.143224e-04 6.958609e-01 1.005538e+00 1.005787e+00 1.564450e+00 1.935878e+00 1.940069e+00 
# velocity (km/s)
     0.5                0.000000e+00 0.000000e+00 0.000000e+00 0.000000e+00 0.000000e+00 0.000000e+00 0.000000e+00 0.000000e+00 0.000000e+00 0.000000e+00 0.000000e+00 0.000000e+00 
     1.5                0.000000e+00 0.000000e+00 0.000000e+00 0.000000e+00 0.000000e+00 0.000000e+00 0.000000e+00 0.000000e+00 0.000000e+00 0.000000e+00 0.000000e+00 0.000000e+00 
     2.5                5.499078e-07 5.552526e-07 1.268966e-06 0.000000e+00 9.135708e-08 4.633168e-09 5.528308e-07 3.764025e-07 3.807973e-07 1.276137e-06 1.127184e-06 1.805725e-06 
     3.5                4.236738e-05 4.241468e-05 3.775560e-05 5.569234e-06 2.060160e-05 9.038371e-08 4.220783e-05 2.308573e-05 2.307456e-05 5.307121e-05 8.927063e-05 1.039334e-04 
     4.5                2.632517e-04 2.641422e-04 1.883449e-04 1.516917e-04 2.511389e-04 4.476265e-07 2.623830e-04 1.542750e-04 1.542067e-04 4.643364e-04 6.277168e-04 6.869749e-04 
     5.5                9.528056e-04 9.566628e-04 6.303420e-04 7.012679e-04 1.069720e-03 1.417239e-06 9.496280e-04 6.367953e-04 6.361534e-04 1.884724e-03 2.376345e-03 2.553930e-03 
     6.5                2.335644e-03 2.340529e-03 1.275611e-03 2.321589e-03 3.189781e-03 2.988465e-06 2.327511e-03 1.826345e-03 1.825838e-03 5.323884e-03 6.217850e-03 6.500283e-03 
     7.5                4.094915e-03 4.099949e-03 2.250453e-03 4.301347e-03 5.884041e-03 5.361242e-06 4.079613e-03 3.518369e-03 3.518154e-03 9.771364e-03 1.112753e-02 1.158826e-02 
     8.5                6.715934e-03 6.717984e-03 3.232583e-03 7.238726e-03 9.733940e-03 8.838911e-06 6.688645e-03 5.973246e-03 5.974646e-03 1.589120e-02 1.833264e-02 1.879339e-02 
     9.5                9.872658e-03 9.874729e-03 4.657150e-03 1.117559e-02 1.470283e-02 1.217007e-05 9.830201e-03 9.218281e-03 9.219889e-03 2.395428e-02 2.719434e-02 2.794380e-02 
    10.5                1.245189e-02 1.244696e-02 5.961216e-03 1.497978e-02 1.975269e-02 1.513129e-05 1.239203e-02 1.289303e-02 1.289535e-02 3.195968e-02 3.516543e-02 3.599897e-02 
    11.5                1.461617e-02 1.461292e-02 6.986648e-03 1.745418e-02 2.345642e-02 1.780827e-05 1.453083e-02 1.665750e-02 1.665910e-02 3.766608e-02 4.150782e-02 4.217805e-02 
    12.5                1.634561e-02 1.633844e-02 7.427650e-03 2.005113e-02 2.672975e-02 1.994717e-05 1.623714e-02 2.009668e-02 2.010137e-02 4.253731e-02 4.683796e-02 4.732204e-02 
    13.5                1.761330e-02 1.760333e-02 7.731646e-03 2.152945e-02 2.872245e-02 2.132885e-05 1.748190e-02 2.282779e-02 2.283232e-02 4.531252e-02 5.045328e-02 5.069965e-02 
    14.5                1.946598e-02 1.945618e-02 7.588153e-03 2.374179e-02 3.103502e-02 2.317066e-05 1.930850e-02 2.603226e-02 2.603695e-02 4.854167e-02 5.528736e-02 5.528506e-02 
    15.5                2.117963e-02 2.117164e-02 7.296427e-03 2.636193e-02 3.317698e-02 2.478667e-05 2.099936e-02 2.911620e-02 2.912261e-02 5.178209e-02 5.976573e-02 5.989607e-02 
    16.5                2.290144e-02 2.288739e-02 6.990147e-03 2.900848e-02 3.555643e-02 2.608282e-05 2.269710e-02 3.222307e-02 3.222968e-02 5.513077e-02 6.436500e-02 6.444493e-02 
    17.5                2.421448e-02 2.420331e-02 6.363721e-03 3.105673e-02 3.705908e-02 2.720038e-05 2.399099e-02 3.467863e-02 3.468651e-02 5.714902e-02 6.768963e-02 6.769254e-02 
    18.5                2.549896e-02 2.548616e-02 5.770452e-03 3.302352e-02 3.838862e-02 2.809127e-05 2.525580e-02 3.714723e-02 3.715472e-02 5.892432e-02 7.082053e-02 7.084389e-02 
    19.5                2.656765e-02 2.655074e-02 5.322983e-03 3.487055e-02 3.975478e-02 2.846632e-05 2.630733e-02 3.928270e-02 3.929338e-02 6.076776e-02 7.358938e-02 7.363654e-02 
    20.5                2.710266e-02 2.708647e-02 4.729510e-03 3.592612e-02 4.029480e-02 2.866250e-05 2.683256e-02 4.052869e-02 4.053798e-02 6.129640e-02 7.490301e-02 7.490069e-02 
    21.5                2.773125e-02 2.771783e-02 4.207218e-03 3.682465e-02 4.060318e-02 2.913427e-05 2.745220e-02 4.161016e-02 4.162181e-02 6.154752e-02 7.618370e-02 7.622484e-02 
    22.5                2.868619e-02 2.866915e-02 3.850014e-03 3.821194e-02 4.169243e-02 2.964760e-05 2.839497e-02 4.318784e-02 4.319862e-02 6.288919e-02 7.858285e-02 7.857766e-02 
    23.5                2.928989e-02 2.927223e-02 3.331859e-03 3.947820e-02 4.246184e-02 2.963402e-05 2.899044e-02 4.434663e-02 4.435765e-02 6.378237e-02 8.014329e-02 8.013335e-02 
    24.5                2.942933e-02 2.941040e-02 2.910685e-03 3.989668e-02 4.246705e-02 2.938791e-05 2.912708e-02 4.463374e-02 4.464470e-02 6.353905e-02 8.038325e-02 8.038144e-02 
    25.5                2.946083e-02 2.944209e-02 2.477005e-03 4.012755e-02 4.233194e-02 2.901032e-05 2.915904e-02 4.464823e-02 4.465913e-02 6.302306e-02 8.033423e-02 8.029442e-02 
    26.5                2.927582e-02 2.925521e-02 2.115204e-03 4.012802e-02 4.197158e-02 2.832925e-05 2.897650e-02 4.437515e-02 4.438609e-02 6.222225e-02 7.975417e-02 7.972782e-02 
    27.5                2.851447e-02 2.849192e-02 1.792787e-03 3.939808e-02 4.096916e-02 2.714457e-05 2.822384e-02 4.325407e-02 4.326709e-02 6.047182e-02 7.773780e-02 7.769460e-02 
    28.5                2.767916e-02 2.765815e-02 1.521939e-03 3.823957e-02 3.955259e-02 2.618836e-05 2.739875e-02 4.182820e-02 4.183768e-02 5.817751e-02 7.530824e-02 7.526929e-02 
    29.5                2.673174e-02 2.670954e-02 1.278864e-03 3.712944e-02 3.822784e-02 2.490315e-05 2.646285e-02 4.031795e-02 4.032936e-02 5.602704e-02 7.273455e-02 7.269587e-02 
    30.5                2.544555e-02 2.542425e-02 1.041173e-03 3.549587e-02 3.639098e-02 2.351092e-05 2.519202e-02 3.827624e-02 3.828512e-02 5.315141e-02 6.924024e-02 6.919318e-02 
    31.5                2.403700e-02 2.401481e-02 8.365598e-04 3.366552e-02 3.438040e-02 2.195743e-05 2.379936e-02 3.602168e-02 3.603200e-02 5.003560e-02 6.540326e-02 6.535816e-02 
    32.5                2.242112e-02 2.239996e-02 6.640759e-04 3.153649e-02 3.209858e-02 2.026088e-05 2.220203e-02 3.345088e-02 3.346029e-02 4.655746e-02 6.102324e-02 6.098188e-02 
    33.5                2.059220e-02 2.056900e-02 5.306471e-04 2.913787e-02 2.958302e-02 1.833791e-05 2.039361e-02 3.057772e-02 3.058589e-02 4.278431e-02 5.610644e-02 5.606949e-02 
    34.5                1.851358e-02 1.849322e-02 4.161129e-04 2.633520e-02 2.668512e-02 1.634544e-05 1.833811e-02 2.735231e-02 2.735927e-02 3.850061e-02 5.050250e-02 5.046876e-02 
    35.5                1.642862e-02 1.640824e-02 3.132083e-04 2.347866e-02 2.374433e-02 1.434183e-05 1.627503e-02 2.414056e-02 2.414818e-02 3.417058e-02 4.485392e-02 4.482192e-02 
    36.5                1.434321e-02 1.432520e-02 2.274703e-04 2.058332e-02 2.077678e-02 1.242611e-05 1.421167e-02 2.093652e-02 2.094150e-02 2.982548e-02 3.919091e-02 3.916357e-02 
    37.5                1.234553e-02 1.232868e-02 1.630661e-04 1.780432e-02 1.794467e-02 1.054071e-05 1.223437e-02 1.789125e-02 1.789689e-02 2.569955e-02 3.376888e-02 3.374527e-02 
    38.5                1.039237e-02 1.037654e-02 1.125548e-04 1.507415e-02 1.517392e-02 8.756905e-06 1.030049e-02 1.496068e-02 1.496561e-02 2.168590e-02 2.847079e-02 2.844967e-02 
    39.5                8.499814e-03 8.485884e-03 7.390458e-05 1.245705e-02 1.252427e-02 7.011110e-06 8.426422e-03 1.217067e-02 1.217465e-02 1.786515e-02 2.335913e-02 2.334255e-02 
    40.5                6.655237e-03 6.642224e-03 4.644304e-05 9.872758e-03 9.917406e-03 5.361880e-06 6.599125e-03 9.478575e-03 9.481684e-03 1.412196e-02 1.836314e-02 1.835009e-02 
    41.5                4.962358e-03 4.951946e-03 2.749649e-05 7.467632e-03 7.496206e-03 3.889244e-06 4.921629e-03 7.038346e-03 7.040648e-03 1.065808e-02 1.376021e-02 1.375037e-02 
    42.5                3.524680e-03 3.516925e-03 1.548109e-05 5.363781e-03 5.381456e-03 2.704349e-06 3.496480e-03 4.971365e-03 4.972960e-03 7.641332e-03 9.812520e-03 9.805562e-03 
    43.5                2.383018e-03 2.376536e-03 8.255228e-06 3.688169e-03 3.698961e-03 1.759408e-06 2.364431e-03 3.347996e-03 3.349476e-03 5.246603e-03 6.673083e-03 6.668349e-03 
    44.5                1.462413e-03 1.458106e-03 3.852112e-06 2.339110e-03 2.345267e-03 1.011290e-06 1.451413e-03 2.064448e-03 2.065308e-03 3.323325e-03 4.146172e-03 4.143135e-03 
    45.5                7.846920e-04 7.819115e-04 1.566923e-06 1.304456e-03 1.307634e-03 4.934621e-07 7.790418e-04 1.116298e-03 1.116657e-03 1.851476e-03 2.257783e-03 2.256078e-03 
    46.5                3.440080e-04 3.425312e-04 5.118242e-07 6.080114e-04 6.094484e-04 1.842501e-07 3.416821e-04 4.998124e-04 5.001124e-04 8.623752e-04 1.014329e-03 1.013503e-03 
    47.5                1.083712e-04 1.078598e-04 1.153838e-07 2.087846e-04 2.092624e-04 4.760344e-08 1.076965e-04 1.636871e-04 1.637488e-04 2.959679e-04 3.319772e-04 3.316801e-04 
    48.5                2.360834e-05 2.349070e-05 1.637144e-08 5.023036e-05 5.034469e-05 7.192780e-09 2.347673e-05 3.740244e-05 3.743250e-05 7.117569e-05 7.568623e-05 7.561070e-05 
    49.5                2.780990e-06 2.770333e-06 5.208659e-10 6.961655e-06 6.977686e-06 2.407488e-10 2.768892e-06 4.838368e-06 4.846131e-06 9.860962e-06 9.656321e-06 9.644812e-06 
    50.5                5.339482e-08 5.390525e-08 0.000000e+00 1.995594e-07 1.999781e-07 0.000000e+00 5.340045e-08 1.239155e-07 1.238943e-07 2.825865e-07 2.363451e-07 2.359945e-07 
    51.5                0.000000e+00 0.000000e+00 0.000000e+00 0.000000e+00 0.000000e+00 0.000000e+00 0.000000e+00 0.000000e+00 0.000000e+00 0.000000e+00 0.000000e+00 0.000000e+00 
    52.5                0.000000e+00 0.000000e+00 0.000000e+00 0.000000e+00 0.000000e+00 0.000000e+00 0.000000e+00 0.000000e+00 0.000000e+00 0.000000e+00 0.000000e+00 0.000000e+00 
    53.5                0.000000e+00 0.000000e+00 0.000000e+00 0.000000e+00 0.000000e+00 0.000000e+00 0.000000e+00 0.000000e+00 0.000000e+00 0.000000e+00 0.000000e+00 0.000000e+00 
    54.5                0.000000e+00 0.000000e+00 0.000000e+00 0.000000e+00 0.000000e+00 0.000000e+00 0.000000e+00 0.000000e+00 0.000000e+00 0.000000e+00 0.000000e+00 0.000000e+00 
    55.5                0.000000e+00 0.000000e+00 0.000000e+00 0.000000e+00 0.000000e+00 0.000000e+00 0.000000e+00 0.000000e+00 0.000000e+00 0.000000e+00 0.000000e+00 0.000000e+00 
    56.5                0.000000e+00 0.000000e+00 0.000000e+00 0.000000e+00 0.000000e+00 0.000000e+00 0.000000e+00 0.000000e+00 0.000000e+00 0.000000e+00 0.000000e+00 0.000000e+00 
    57.5                0.000000e+00 0.000000e+00 0.000000e+00 0.000000e+00 0.000000e+00 0.000000e+00 0.000000e+00 0.000000e+00 0.000000e+00 0.000000e+00 0.000000e+00 0.000000e+00 
    58.5                0.000000e+00 0.000000e+00 0.000000e+00 0.000000e+00 0.000000e+00 0.000000e+00 0.000000e+00 0.000000e+00 0.000000e+00 0.000000e+00 0.000000e+00 0.000000e+00 
    59.5                0.000000e+00 0.000000e+00 0.000000e+00 0.000000e+00 0.000000e+00 0.000000e+00 0.000000e+00 0.000000e+00 0.000000e+00 0.000000e+00 0.000000e+00 0.000000e+00 
    60.5                0.000000e+00 0.000000e+00 0.000000e+00 0.000000e+00 0.000000e+00 0.000000e+00 0.000000e+00 0.000000e+00 0.000000e+00 0.000000e+00 0.000000e+00 0.000000e+00 
    61.5                0.000000e+00 0.000000e+00 0.000000e+00 0.000000e+00 0.000000e+00 0.000000e+00 0.000000e+00 0.000000e+00 0.000000e+00 0.000000e+00 0.000000e+00 0.000000e+00 
    62.5                0.000000e+00 0.000000e+00 0.000000e+00 0.000000e+00 0.000000e+00 0.000000e+00 0.000000e+00 0.000000e+00 0.000000e+00 0.000000e+00 0.000000e+00 0.000000e+00 
    63.5                0.000000e+00 0.000000e+00 0.000000e+00 0.000000e+00 0.000000e+00 0.000000e+00 0.000000e+00 0.000000e+00 0.000000e+00 0.000000e+00 0.000000e+00 0.000000e+00 
    64.5                0.000000e+00 0.000000e+00 0.000000e+00 0.000000e+00 0.000000e+00 0.000000e+00 0.000000e+00 0.000000e+00 0.000000e+00 0.000000e+00 0.000000e+00 0.000000e+00 
    65.5                0.000000e+00 0.000000e+00 0.000000e+00 0.000000e+00 0.000000e+00 0.000000e+00 0.000000e+00 0.000000e+00 0.000000e+00 0.000000e+00 0.000000e+00 0.000000e+00 
    66.5                0.000000e+00 0.000000e+00 0.000000e+00 0.000000e+00 0.000000e+00 0.000000e+00 0.000000e+00 0.000000e+00 0.000000e+00 0.000000e+00 0.000000e+00 0.000000e+00 
    67.5                0.000000e+00 0.000000e+00 0.000000e+00 0.000000e+00 0.000000e+00 0.000000e+00 0.000000e+00 0.000000e+00 0.000000e+00 0.000000e+00 0.000000e+00 0.000000e+00 
    68.5                0.000000e+00 0.000000e+00 0.000000e+00 0.000000e+00 0.000000e+00 0.000000e+00 0.000000e+00 0.000000e+00 0.000000e+00 0.000000e+00 0.000000e+00 0.000000e+00 
    69.5                0.000000e+00 0.000000e+00 0.000000e+00 0.000000e+00 0.000000e+00 0.000000e+00 0.000000e+00 0.000000e+00 0.000000e+00 0.000000e+00 0.000000e+00 0.000000e+00 
    70.5                0.000000e+00 0.000000e+00 0.000000e+00 0.000000e+00 0.000000e+00 0.000000e+00 0.000000e+00 0.000000e+00 0.000000e+00 0.000000e+00 0.000000e+00 0.000000e+00 
    71.5                0.000000e+00 0.000000e+00 0.000000e+00 0.000000e+00 0.000000e+00 0.000000e+00 0.000000e+00 0.000000e+00 0.000000e+00 0.000000e+00 0.000000e+00 0.000000e+00 
    72.5                0.000000e+00 0.000000e+00 0.000000e+00 0.000000e+00 0.000000e+00 0.000000e+00 0.000000e+00 0.000000e+00 0.000000e+00 0.000000e+00 0.000000e+00 0.000000e+00 
    73.5                0.000000e+00 0.000000e+00 0.000000e+00 0.000000e+00 0.000000e+00 0.000000e+00 0.000000e+00 0.000000e+00 0.000000e+00 0.000000e+00 0.000000e+00 0.000000e+00 
    74.5                0.000000e+00 0.000000e+00 0.000000e+00 0.000000e+00 0.000000e+00 0.000000e+00 0.000000e+00 0.000000e+00 0.000000e+00 0.000000e+00 0.000000e+00 0.000000e+00 
    75.5                0.000000e+00 0.000000e+00 0.000000e+00 0.000000e+00 0.000000e+00 0.000000e+00 0.000000e+00 0.000000e+00 0.000000e+00 0.000000e+00 0.000000e+00 0.000000e+00 
    76.5                0.000000e+00 0.000000e+00 0.000000e+00 0.000000e+00 0.000000e+00 0.000000e+00 0.000000e+00 0.000000e+00 0.000000e+00 0.000000e+00 0.000000e+00 0.000000e+00 
    77.5                0.000000e+00 0.000000e+00 0.000000e+00 0.000000e+00 0.000000e+00 0.000000e+00 0.000000e+00 0.000000e+00 0.000000e+00 0.000000e+00 0.000000e+00 0.000000e+00 
    78.5                0.000000e+00 0.000000e+00 0.000000e+00 0.000000e+00 0.000000e+00 0.000000e+00 0.000000e+00 0.000000e+00 0.000000e+00 0.000000e+00 0.000000e+00 0.000000e+00 
    79.5                0.000000e+00 0.000000e+00 0.000000e+00 0.000000e+00 0.000000e+00 0.000000e+00 0.000000e+00 0.000000e+00 0.000000e+00 0.000000e+00 0.000000e+00 0.000000e+00 


