# 80 rows of flux data
# 12 columns of flux data
# 
# total cross-sectional flux  2.047455e+00 /m^2/yr
#
#                             +x ram      -x wake      +y port -y starboard    +z zenith     -z nadir        Earth          Sun     anti-Sun      rot (x)      rot (y)      rot (z) 
# average speed (km/s)         23.99        23.99        17.49        24.25        23.45        23.46        23.99        24.29        24.29        23.18        23.80        23.79 
# total flux (#/m2/yr)  6.402797e-01 6.399180e-01 1.132186e-01 7.967508e-01 8.954861e-01 7.195133e-04 6.341898e-01 8.955535e-01 8.952661e-01 1.355211e+00 1.730206e+00 1.733879e+00 
# velocity (km/s)
     0.5                0.000000e+00 0.000000e+00 0.000000e+00 0.000000e+00 0.000000e+00 0.000000e+00 0.000000e+00 0.000000e+00 0.000000e+00 0.000000e+00 0.000000e+00 0.000000e+00 
     1.5                0.000000e+00 0.000000e+00 0.000000e+00 0.000000e+00 0.000000e+00 0.000000e+00 0.000000e+00 0.000000e+00 0.000000e+00 0.000000e+00 0.000000e+00 0.000000e+00 
     2.5                9.571234e-07 9.960164e-07 0.000000e+00 3.290554e-06 4.842614e-06 0.000000e+00 9.936140e-07 7.470454e-07 7.335780e-07 5.923935e-06 5.381401e-06 4.040300e-06 
     3.5                7.643713e-05 7.747177e-05 5.738182e-06 1.174973e-04 1.606333e-04 2.719949e-08 7.712278e-05 5.745294e-05 5.741251e-05 2.142287e-04 2.448701e-04 2.197180e-04 
     4.5                4.119792e-04 4.140952e-04 6.314044e-05 6.060180e-04 7.761852e-04 2.720199e-07 4.118479e-04 3.259715e-04 3.257102e-04 1.115139e-03 1.258794e-03 1.182022e-03 
     5.5                1.288793e-03 1.292495e-03 3.202037e-04 1.690086e-03 2.222073e-03 1.223313e-06 1.286354e-03 1.122992e-03 1.122028e-03 3.315271e-03 3.784091e-03 3.624411e-03 
     6.5                2.585268e-03 2.587506e-03 8.756176e-04 3.185597e-03 4.265894e-03 2.926945e-06 2.575110e-03 2.341742e-03 2.340118e-03 6.552775e-03 7.454217e-03 7.265448e-03 
     7.5                4.576391e-03 4.579032e-03 1.668711e-03 5.668882e-03 7.622334e-03 5.315626e-06 4.557871e-03 4.263451e-03 4.261413e-03 1.176424e-02 1.324029e-02 1.296082e-02 
     8.5                7.192190e-03 7.193665e-03 2.731033e-03 8.600667e-03 1.140584e-02 8.694653e-06 7.159905e-03 6.889187e-03 6.887601e-03 1.793650e-02 2.037888e-02 2.023426e-02 
     9.5                9.464604e-03 9.464235e-03 3.864042e-03 1.072732e-02 1.473948e-02 1.257287e-05 9.412888e-03 9.766014e-03 9.762844e-03 2.322731e-02 2.665842e-02 2.637981e-02 
    10.5                1.156532e-02 1.156330e-02 5.311328e-03 1.289376e-02 1.814969e-02 1.547258e-05 1.149059e-02 1.298864e-02 1.298570e-02 2.874035e-02 3.265195e-02 3.244706e-02 
    11.5                1.361956e-02 1.361246e-02 6.752749e-03 1.483311e-02 2.110433e-02 1.830434e-05 1.352179e-02 1.606973e-02 1.606505e-02 3.365356e-02 3.822228e-02 3.830022e-02 
    12.5                1.495392e-02 1.494391e-02 7.577634e-03 1.641951e-02 2.314000e-02 2.026947e-05 1.483320e-02 1.870048e-02 1.869516e-02 3.706974e-02 4.198034e-02 4.232400e-02 
    13.5                1.674994e-02 1.674577e-02 8.052044e-03 1.901571e-02 2.604113e-02 2.141253e-05 1.661364e-02 2.186510e-02 2.185798e-02 4.154724e-02 4.707478e-02 4.757964e-02 
    14.5                1.854920e-02 1.854094e-02 8.142691e-03 2.149244e-02 2.837442e-02 2.319739e-05 1.838601e-02 2.493315e-02 2.492592e-02 4.517248e-02 5.180591e-02 5.249804e-02 
    15.5                2.017798e-02 2.016814e-02 7.645010e-03 2.371761e-02 3.029737e-02 2.496266e-05 1.999288e-02 2.781406e-02 2.780620e-02 4.779052e-02 5.599471e-02 5.650013e-02 
    16.5                2.162620e-02 2.161678e-02 7.337737e-03 2.578761e-02 3.206133e-02 2.615373e-05 2.142208e-02 3.030276e-02 3.029321e-02 5.027383e-02 5.970667e-02 6.020891e-02 
    17.5                2.294505e-02 2.293463e-02 6.792524e-03 2.788484e-02 3.357697e-02 2.731717e-05 2.272084e-02 3.284328e-02 3.283345e-02 5.240974e-02 6.304127e-02 6.356038e-02 
    18.5                2.405826e-02 2.404317e-02 6.092339e-03 2.946770e-02 3.458114e-02 2.815637e-05 2.381557e-02 3.480459e-02 3.479257e-02 5.363977e-02 6.565997e-02 6.607542e-02 
    19.5                2.476513e-02 2.475319e-02 5.561021e-03 3.065172e-02 3.534085e-02 2.864813e-05 2.451485e-02 3.619475e-02 3.618388e-02 5.449489e-02 6.741735e-02 6.774448e-02 
    20.5                2.541565e-02 2.540721e-02 5.010746e-03 3.180947e-02 3.596203e-02 2.883670e-05 2.515801e-02 3.738112e-02 3.736870e-02 5.514773e-02 6.897348e-02 6.928538e-02 
    21.5                2.630701e-02 2.629668e-02 4.370802e-03 3.337240e-02 3.701941e-02 2.923867e-05 2.603527e-02 3.897637e-02 3.896361e-02 5.641737e-02 7.122992e-02 7.145416e-02 
    22.5                2.707903e-02 2.706752e-02 4.046160e-03 3.441456e-02 3.773748e-02 2.983616e-05 2.679872e-02 4.018193e-02 4.016913e-02 5.727957e-02 7.306851e-02 7.328965e-02 
    23.5                2.735924e-02 2.734552e-02 3.510583e-03 3.494013e-02 3.778953e-02 2.982841e-05 2.707342e-02 4.058063e-02 4.056807e-02 5.707590e-02 7.358048e-02 7.375152e-02 
    24.5                2.747752e-02 2.746462e-02 3.044745e-03 3.528189e-02 3.775366e-02 2.954945e-05 2.719129e-02 4.073716e-02 4.072421e-02 5.670499e-02 7.375898e-02 7.387120e-02 
    25.5                2.743105e-02 2.741714e-02 2.633023e-03 3.530207e-02 3.738752e-02 2.914764e-05 2.714598e-02 4.057814e-02 4.056450e-02 5.588688e-02 7.341523e-02 7.352392e-02 
    26.5                2.683834e-02 2.682236e-02 2.219642e-03 3.453391e-02 3.630065e-02 2.852778e-05 2.655928e-02 3.955903e-02 3.954632e-02 5.400249e-02 7.164862e-02 7.170595e-02 
    27.5                2.610247e-02 2.608902e-02 1.897992e-03 3.376801e-02 3.525552e-02 2.731972e-05 2.583340e-02 3.840855e-02 3.839678e-02 5.221431e-02 6.964205e-02 6.968733e-02 
    28.5                2.529445e-02 2.527944e-02 1.597990e-03 3.272071e-02 3.397284e-02 2.636636e-05 2.503471e-02 3.703474e-02 3.702211e-02 5.010985e-02 6.735503e-02 6.737647e-02 
    29.5                2.416509e-02 2.414992e-02 1.346257e-03 3.126797e-02 3.231333e-02 2.510398e-05 2.391824e-02 3.521299e-02 3.520094e-02 4.747675e-02 6.424868e-02 6.425474e-02 
    30.5                2.289732e-02 2.288306e-02 1.105997e-03 2.964125e-02 3.048376e-02 2.368373e-05 2.266659e-02 3.317687e-02 3.316681e-02 4.462132e-02 6.078747e-02 6.079045e-02 
    31.5                2.142301e-02 2.140787e-02 8.886431e-04 2.770346e-02 2.837498e-02 2.212117e-05 2.120834e-02 3.081505e-02 3.080498e-02 4.137103e-02 5.677433e-02 5.676700e-02 
    32.5                1.973870e-02 1.972399e-02 7.008334e-04 2.544784e-02 2.597554e-02 2.044046e-05 1.954417e-02 2.813062e-02 2.812150e-02 3.774633e-02 5.219718e-02 5.218250e-02 
    33.5                1.780540e-02 1.779094e-02 5.557702e-04 2.288532e-02 2.330289e-02 1.851541e-05 1.763173e-02 2.514918e-02 2.514026e-02 3.377238e-02 4.699884e-02 4.698109e-02 
    34.5                1.585307e-02 1.583913e-02 4.387910e-04 2.031685e-02 2.064204e-02 1.650051e-05 1.570047e-02 2.219002e-02 2.218271e-02 2.983772e-02 4.177281e-02 4.175573e-02 
    35.5                1.387721e-02 1.386434e-02 3.322605e-04 1.775121e-02 1.799405e-02 1.449978e-05 1.374532e-02 1.923689e-02 1.923020e-02 2.593892e-02 3.651911e-02 3.650448e-02 
    36.5                1.198341e-02 1.197169e-02 2.415629e-04 1.525850e-02 1.543409e-02 1.256319e-05 1.187190e-02 1.641914e-02 1.641425e-02 2.218919e-02 3.146108e-02 3.144633e-02 
    37.5                1.011990e-02 1.010867e-02 1.728990e-04 1.283284e-02 1.295837e-02 1.067910e-05 1.002644e-02 1.370774e-02 1.370330e-02 1.858647e-02 2.651848e-02 2.650500e-02 
    38.5                8.318819e-03 8.308581e-03 1.206452e-04 1.044225e-02 1.052837e-02 8.882109e-06 8.243533e-03 1.110073e-02 1.109709e-02 1.507164e-02 2.171537e-02 2.170501e-02 
    39.5                6.551230e-03 6.542085e-03 7.883695e-05 8.124662e-03 8.181219e-03 7.129679e-06 6.493007e-03 8.598047e-03 8.595198e-03 1.168925e-02 1.702844e-02 1.701928e-02 
    40.5                4.916359e-03 4.908368e-03 4.953546e-05 6.010473e-03 6.046321e-03 5.456362e-06 4.873273e-03 6.341723e-03 6.339748e-03 8.624745e-03 1.271760e-02 1.271060e-02 
    41.5                3.510784e-03 3.504457e-03 2.944104e-05 4.242914e-03 4.264488e-03 3.969338e-06 3.480377e-03 4.455678e-03 4.453890e-03 6.073797e-03 9.046968e-03 9.041974e-03 
    42.5                2.391067e-03 2.385910e-03 1.645299e-05 2.834477e-03 2.847014e-03 2.770872e-06 2.370454e-03 2.973154e-03 2.972331e-03 4.049755e-03 6.122891e-03 6.119475e-03 
    43.5                1.488023e-03 1.484317e-03 8.856222e-06 1.699540e-03 1.706470e-03 1.805927e-06 1.475453e-03 1.800594e-03 1.799838e-03 2.425224e-03 3.767836e-03 3.765758e-03 
    44.5                8.120145e-04 8.093275e-04 4.162039e-06 8.853431e-04 8.886989e-04 1.045621e-06 8.049634e-04 9.525180e-04 9.521799e-04 1.262083e-03 2.027926e-03 2.026816e-03 
    45.5                3.655970e-04 3.642166e-04 1.690102e-06 3.679642e-04 3.693791e-04 5.143743e-07 3.625402e-04 4.113789e-04 4.111069e-04 5.244002e-04 8.930702e-04 8.925866e-04 
    46.5                1.197424e-04 1.190994e-04 5.613815e-07 1.081875e-04 1.086326e-04 1.941888e-07 1.186409e-04 1.283826e-04 1.284208e-04 1.542674e-04 2.850174e-04 2.848700e-04 
    47.5                2.736483e-05 2.723874e-05 1.296984e-07 2.123589e-05 2.133237e-05 5.132244e-08 2.715108e-05 2.769998e-05 2.769290e-05 3.031255e-05 6.300469e-05 6.297429e-05 
    48.5                3.510368e-06 3.489991e-06 1.863797e-08 1.938335e-06 1.950892e-06 7.984342e-09 3.481469e-06 3.214927e-06 3.217374e-06 2.779733e-06 7.588019e-06 7.585018e-06 
    49.5                8.163155e-08 8.147782e-08 7.104293e-10 1.720670e-08 1.743406e-08 3.140152e-10 8.127693e-08 6.667598e-08 6.619448e-08 2.553889e-08 1.647391e-07 1.647248e-07 
    50.5                0.000000e+00 0.000000e+00 0.000000e+00 0.000000e+00 0.000000e+00 0.000000e+00 0.000000e+00 0.000000e+00 0.000000e+00 0.000000e+00 0.000000e+00 0.000000e+00 
    51.5                0.000000e+00 0.000000e+00 0.000000e+00 0.000000e+00 0.000000e+00 0.000000e+00 0.000000e+00 0.000000e+00 0.000000e+00 0.000000e+00 0.000000e+00 0.000000e+00 
    52.5                0.000000e+00 0.000000e+00 0.000000e+00 0.000000e+00 0.000000e+00 0.000000e+00 0.000000e+00 0.000000e+00 0.000000e+00 0.000000e+00 0.000000e+00 0.000000e+00 
    53.5                0.000000e+00 0.000000e+00 0.000000e+00 0.000000e+00 0.000000e+00 0.000000e+00 0.000000e+00 0.000000e+00 0.000000e+00 0.000000e+00 0.000000e+00 0.000000e+00 
    54.5                0.000000e+00 0.000000e+00 0.000000e+00 0.000000e+00 0.000000e+00 0.000000e+00 0.000000e+00 0.000000e+00 0.000000e+00 0.000000e+00 0.000000e+00 0.000000e+00 
    55.5                0.000000e+00 0.000000e+00 0.000000e+00 0.000000e+00 0.000000e+00 0.000000e+00 0.000000e+00 0.000000e+00 0.000000e+00 0.000000e+00 0.000000e+00 0.000000e+00 
    56.5                0.000000e+00 0.000000e+00 0.000000e+00 0.000000e+00 0.000000e+00 0.000000e+00 0.000000e+00 0.000000e+00 0.000000e+00 0.000000e+00 0.000000e+00 0.000000e+00 
    57.5                0.000000e+00 0.000000e+00 0.000000e+00 0.000000e+00 0.000000e+00 0.000000e+00 0.000000e+00 0.000000e+00 0.000000e+00 0.000000e+00 0.000000e+00 0.000000e+00 
    58.5                0.000000e+00 0.000000e+00 0.000000e+00 0.000000e+00 0.000000e+00 0.000000e+00 0.000000e+00 0.000000e+00 0.000000e+00 0.000000e+00 0.000000e+00 0.000000e+00 
    59.5                0.000000e+00 0.000000e+00 0.000000e+00 0.000000e+00 0.000000e+00 0.000000e+00 0.000000e+00 0.000000e+00 0.000000e+00 0.000000e+00 0.000000e+00 0.000000e+00 
    60.5                0.000000e+00 0.000000e+00 0.000000e+00 0.000000e+00 0.000000e+00 0.000000e+00 0.000000e+00 0.000000e+00 0.000000e+00 0.000000e+00 0.000000e+00 0.000000e+00 
    61.5                0.000000e+00 0.000000e+00 0.000000e+00 0.000000e+00 0.000000e+00 0.000000e+00 0.000000e+00 0.000000e+00 0.000000e+00 0.000000e+00 0.000000e+00 0.000000e+00 
    62.5                0.000000e+00 0.000000e+00 0.000000e+00 0.000000e+00 0.000000e+00 0.000000e+00 0.000000e+00 0.000000e+00 0.000000e+00 0.000000e+00 0.000000e+00 0.000000e+00 
    63.5                0.000000e+00 0.000000e+00 0.000000e+00 0.000000e+00 0.000000e+00 0.000000e+00 0.000000e+00 0.000000e+00 0.000000e+00 0.000000e+00 0.000000e+00 0.000000e+00 
    64.5                0.000000e+00 0.000000e+00 0.000000e+00 0.000000e+00 0.000000e+00 0.000000e+00 0.000000e+00 0.000000e+00 0.000000e+00 0.000000e+00 0.000000e+00 0.000000e+00 
    65.5                0.000000e+00 0.000000e+00 0.000000e+00 0.000000e+00 0.000000e+00 0.000000e+00 0.000000e+00 0.000000e+00 0.000000e+00 0.000000e+00 0.000000e+00 0.000000e+00 
    66.5                0.000000e+00 0.000000e+00 0.000000e+00 0.000000e+00 0.000000e+00 0.000000e+00 0.000000e+00 0.000000e+00 0.000000e+00 0.000000e+00 0.000000e+00 0.000000e+00 
    67.5                0.000000e+00 0.000000e+00 0.000000e+00 0.000000e+00 0.000000e+00 0.000000e+00 0.000000e+00 0.000000e+00 0.000000e+00 0.000000e+00 0.000000e+00 0.000000e+00 
    68.5                0.000000e+00 0.000000e+00 0.000000e+00 0.000000e+00 0.000000e+00 0.000000e+00 0.000000e+00 0.000000e+00 0.000000e+00 0.000000e+00 0.000000e+00 0.000000e+00 
    69.5                0.000000e+00 0.000000e+00 0.000000e+00 0.000000e+00 0.000000e+00 0.000000e+00 0.000000e+00 0.000000e+00 0.000000e+00 0.000000e+00 0.000000e+00 0.000000e+00 
    70.5                0.000000e+00 0.000000e+00 0.000000e+00 0.000000e+00 0.000000e+00 0.000000e+00 0.000000e+00 0.000000e+00 0.000000e+00 0.000000e+00 0.000000e+00 0.000000e+00 
    71.5                0.000000e+00 0.000000e+00 0.000000e+00 0.000000e+00 0.000000e+00 0.000000e+00 0.000000e+00 0.000000e+00 0.000000e+00 0.000000e+00 0.000000e+00 0.000000e+00 
    72.5                0.000000e+00 0.000000e+00 0.000000e+00 0.000000e+00 0.000000e+00 0.000000e+00 0.000000e+00 0.000000e+00 0.000000e+00 0.000000e+00 0.000000e+00 0.000000e+00 
    73.5                0.000000e+00 0.000000e+00 0.000000e+00 0.000000e+00 0.000000e+00 0.000000e+00 0.000000e+00 0.000000e+00 0.000000e+00 0.000000e+00 0.000000e+00 0.000000e+00 
    74.5                0.000000e+00 0.000000e+00 0.000000e+00 0.000000e+00 0.000000e+00 0.000000e+00 0.000000e+00 0.000000e+00 0.000000e+00 0.000000e+00 0.000000e+00 0.000000e+00 
    75.5                0.000000e+00 0.000000e+00 0.000000e+00 0.000000e+00 0.000000e+00 0.000000e+00 0.000000e+00 0.000000e+00 0.000000e+00 0.000000e+00 0.000000e+00 0.000000e+00 
    76.5                0.000000e+00 0.000000e+00 0.000000e+00 0.000000e+00 0.000000e+00 0.000000e+00 0.000000e+00 0.000000e+00 0.000000e+00 0.000000e+00 0.000000e+00 0.000000e+00 
    77.5                0.000000e+00 0.000000e+00 0.000000e+00 0.000000e+00 0.000000e+00 0.000000e+00 0.000000e+00 0.000000e+00 0.000000e+00 0.000000e+00 0.000000e+00 0.000000e+00 
    78.5                0.000000e+00 0.000000e+00 0.000000e+00 0.000000e+00 0.000000e+00 0.000000e+00 0.000000e+00 0.000000e+00 0.000000e+00 0.000000e+00 0.000000e+00 0.000000e+00 
    79.5                0.000000e+00 0.000000e+00 0.000000e+00 0.000000e+00 0.000000e+00 0.000000e+00 0.000000e+00 0.000000e+00 0.000000e+00 0.000000e+00 0.000000e+00 0.000000e+00 


