# 80 rows of flux data
# 12 columns of flux data
# 
# total cross-sectional flux  1.120660e+00 /m^2/yr
#
#                             +x ram      -x wake      +y port -y starboard    +z zenith     -z nadir        Earth          Sun     anti-Sun      rot (x)      rot (y)      rot (z) 
# average speed (km/s)         37.02        37.03        32.91        29.60        36.61        30.77        37.05        27.52        27.52        33.26        36.81        33.39 
# total flux (#/m2/yr)  2.524181e-01 2.521690e-01 3.295101e-01 3.576275e-01 5.074676e-01 3.918494e-04 2.519264e-01 1.851984e-01 1.851941e-01 9.315668e-01 7.979768e-01 9.232508e-01 
# velocity (km/s)
     0.5                0.000000e+00 0.000000e+00 0.000000e+00 0.000000e+00 0.000000e+00 0.000000e+00 0.000000e+00 0.000000e+00 0.000000e+00 0.000000e+00 0.000000e+00 0.000000e+00 
     1.5                0.000000e+00 0.000000e+00 0.000000e+00 0.000000e+00 0.000000e+00 0.000000e+00 0.000000e+00 0.000000e+00 0.000000e+00 0.000000e+00 0.000000e+00 0.000000e+00 
     2.5                9.168909e-05 9.250068e-05 6.878294e-05 8.612042e-05 1.047685e-04 1.005912e-07 9.130389e-05 7.560979e-05 7.585245e-05 2.087852e-04 2.266289e-04 2.662465e-04 
     3.5                4.294310e-04 4.303573e-04 3.125594e-04 3.424626e-04 6.787705e-04 4.776164e-07 4.272140e-04 3.838860e-04 3.836325e-04 1.065605e-03 1.210671e-03 1.176253e-03 
     4.5                9.523704e-04 9.518150e-04 8.026787e-04 7.950796e-04 1.789607e-03 1.019458e-06 9.471337e-04 9.486969e-04 9.488651e-04 2.679782e-03 2.906026e-03 2.717967e-03 
     5.5                1.537317e-03 1.535284e-03 1.453739e-03 1.402584e-03 3.066676e-03 1.705064e-06 1.528042e-03 1.670780e-03 1.670953e-03 4.660493e-03 4.831862e-03 4.600441e-03 
     6.5                2.151283e-03 2.147151e-03 2.289426e-03 2.268494e-03 4.420129e-03 2.548553e-06 2.138528e-03 2.461018e-03 2.461574e-03 7.049780e-03 6.861298e-03 6.898951e-03 
     7.5                2.693288e-03 2.689153e-03 3.086400e-03 3.209840e-03 5.578332e-03 3.539010e-06 2.677328e-03 3.162405e-03 3.162890e-03 9.325700e-03 8.627098e-03 9.104102e-03 
     8.5                3.164189e-03 3.158282e-03 3.919029e-03 4.181034e-03 6.638256e-03 4.539197e-06 3.146378e-03 3.795976e-03 3.796959e-03 1.157423e-02 1.020773e-02 1.128123e-02 
     9.5                3.595453e-03 3.589295e-03 4.619185e-03 5.114252e-03 7.498153e-03 5.512434e-06 3.575424e-03 4.367340e-03 4.368014e-03 1.355584e-02 1.156205e-02 1.325605e-02 
    10.5                3.908156e-03 3.900596e-03 5.273510e-03 6.042259e-03 8.196154e-03 6.516265e-06 3.887027e-03 4.825790e-03 4.826862e-03 1.536657e-02 1.260770e-02 1.500724e-02 
    11.5                4.283492e-03 4.276191e-03 6.071992e-03 7.195740e-03 8.977583e-03 7.738285e-06 4.261650e-03 5.382261e-03 5.383135e-03 1.756135e-02 1.381581e-02 1.719836e-02 
    12.5                4.538046e-03 4.529945e-03 6.657130e-03 8.024713e-03 9.533868e-03 8.623200e-06 4.514736e-03 5.810152e-03 5.810516e-03 1.911903e-02 1.466028e-02 1.870574e-02 
    13.5                4.657529e-03 4.648450e-03 7.210351e-03 9.006861e-03 9.915085e-03 9.439939e-06 4.637477e-03 5.990977e-03 5.991993e-03 2.068595e-02 1.514813e-02 2.023070e-02 
    14.5                4.626096e-03 4.619084e-03 7.186750e-03 9.317108e-03 9.739935e-03 1.017364e-05 4.606287e-03 5.998989e-03 5.999589e-03 2.084112e-02 1.496836e-02 2.043938e-02 
    15.5                4.779528e-03 4.771013e-03 7.779923e-03 1.028813e-02 1.009629e-02 1.102865e-05 4.761576e-03 6.123648e-03 6.124530e-03 2.240774e-02 1.548794e-02 2.198639e-02 
    16.5                4.740177e-03 4.732156e-03 7.839347e-03 1.047063e-02 1.001246e-02 1.123108e-05 4.723120e-03 6.110931e-03 6.111468e-03 2.255129e-02 1.536649e-02 2.214153e-02 
    17.5                4.767685e-03 4.758496e-03 7.999437e-03 1.081997e-02 1.006338e-02 1.150168e-05 4.751619e-03 6.097152e-03 6.097903e-03 2.301117e-02 1.544763e-02 2.260384e-02 
    18.5                4.767645e-03 4.759648e-03 8.100899e-03 1.113927e-02 1.001157e-02 1.191987e-05 4.752766e-03 6.004264e-03 6.004634e-03 2.333375e-02 1.540862e-02 2.294203e-02 
    19.5                4.754472e-03 4.746981e-03 8.173257e-03 1.112121e-02 9.917285e-03 1.201553e-05 4.739382e-03 5.901076e-03 5.901594e-03 2.328479e-02 1.531930e-02 2.292861e-02 
    20.5                4.649903e-03 4.642074e-03 8.078355e-03 1.096402e-02 9.757036e-03 1.182040e-05 4.635751e-03 5.674847e-03 5.675328e-03 2.293230e-02 1.502277e-02 2.252766e-02 
    21.5                4.558706e-03 4.552487e-03 8.005227e-03 1.099134e-02 9.472589e-03 1.184953e-05 4.546866e-03 5.441317e-03 5.441718e-03 2.268743e-02 1.466336e-02 2.235499e-02 
    22.5                4.632109e-03 4.624326e-03 8.185203e-03 1.122664e-02 9.606963e-03 1.195147e-05 4.620893e-03 5.369769e-03 5.369966e-03 2.310278e-02 1.487917e-02 2.275978e-02 
    23.5                4.362705e-03 4.355501e-03 7.838839e-03 1.055059e-02 9.135739e-03 1.121080e-05 4.352640e-03 5.014373e-03 5.014582e-03 2.187625e-02 1.408704e-02 2.150525e-02 
    24.5                4.165089e-03 4.159669e-03 7.427560e-03 9.931535e-03 8.602121e-03 1.058960e-05 4.155179e-03 4.690386e-03 4.690635e-03 2.062114e-02 1.335497e-02 2.031650e-02 
    25.5                4.060862e-03 4.053982e-03 7.352747e-03 9.701245e-03 8.404065e-03 1.023749e-05 4.051127e-03 4.418354e-03 4.418166e-03 2.018814e-02 1.303218e-02 1.988340e-02 
    26.5                3.936392e-03 3.930723e-03 7.023088e-03 9.144985e-03 8.030750e-03 9.681449e-06 3.926593e-03 4.145324e-03 4.145486e-03 1.916927e-02 1.254432e-02 1.892159e-02 
    27.5                3.849023e-03 3.844141e-03 6.904002e-03 8.733455e-03 7.876880e-03 8.990656e-06 3.839717e-03 3.948091e-03 3.947807e-03 1.856031e-02 1.228513e-02 1.829508e-02 
    28.5                3.680420e-03 3.675265e-03 6.571541e-03 8.244958e-03 7.510839e-03 8.444751e-06 3.671822e-03 3.671189e-03 3.671630e-03 1.758724e-02 1.172980e-02 1.733380e-02 
    29.5                3.534409e-03 3.529216e-03 6.339690e-03 7.830455e-03 7.217904e-03 7.930207e-06 3.526990e-03 3.328637e-03 3.328414e-03 1.680724e-02 1.126391e-02 1.656134e-02 
    30.5                3.281693e-03 3.276837e-03 5.933430e-03 7.356598e-03 6.688271e-03 7.483996e-06 3.275888e-03 3.029322e-03 3.029233e-03 1.570744e-02 1.045275e-02 1.548198e-02 
    31.5                3.208835e-03 3.205654e-03 5.760905e-03 7.016620e-03 6.457462e-03 7.031694e-06 3.202970e-03 2.862557e-03 2.862479e-03 1.508334e-02 1.015950e-02 1.489937e-02 
    32.5                3.098351e-03 3.092246e-03 5.546773e-03 6.562215e-03 6.266118e-03 6.396750e-06 3.093205e-03 2.628719e-03 2.628552e-03 1.433850e-02 9.830360e-03 1.415618e-02 
    33.5                3.036172e-03 3.033295e-03 5.251579e-03 6.115560e-03 6.068680e-03 5.953827e-06 3.031234e-03 2.392562e-03 2.392211e-03 1.356019e-02 9.578347e-03 1.340717e-02 
    34.5                3.101150e-03 3.098150e-03 5.384246e-03 6.202122e-03 6.177558e-03 5.928698e-06 3.097135e-03 2.281308e-03 2.280970e-03 1.379559e-02 9.764917e-03 1.364671e-02 
    35.5                2.963967e-03 2.958878e-03 5.064148e-03 5.638687e-03 5.928217e-03 5.260139e-06 2.960072e-03 2.151024e-03 2.150813e-03 1.284067e-02 9.352301e-03 1.269983e-02 
    36.5                2.924747e-03 2.922098e-03 4.793714e-03 5.326117e-03 5.735006e-03 5.103522e-06 2.920554e-03 1.985246e-03 1.985123e-03 1.221654e-02 9.140450e-03 1.213195e-02 
    37.5                3.000899e-03 2.997969e-03 4.977868e-03 5.447049e-03 5.973167e-03 5.075410e-06 2.998267e-03 1.915412e-03 1.915117e-03 1.261020e-02 9.451652e-03 1.247633e-02 
    38.5                2.980441e-03 2.979397e-03 4.755368e-03 5.120925e-03 5.794611e-03 4.816425e-06 2.977596e-03 1.814416e-03 1.814217e-03 1.201906e-02 9.280853e-03 1.198366e-02 
    39.5                3.203634e-03 3.200230e-03 4.912378e-03 5.146597e-03 6.235211e-03 4.779377e-06 3.201866e-03 1.774534e-03 1.774113e-03 1.244442e-02 9.962513e-03 1.239727e-02 
    40.5                3.108299e-03 3.109800e-03 4.756589e-03 4.955083e-03 6.123457e-03 4.648620e-06 3.105964e-03 1.699864e-03 1.699581e-03 1.207784e-02 9.743052e-03 1.198000e-02 
    41.5                3.191293e-03 3.187641e-03 4.752097e-03 4.861484e-03 6.184454e-03 4.606728e-06 3.189068e-03 1.619406e-03 1.618970e-03 1.201440e-02 9.919832e-03 1.199696e-02 
    42.5                3.470025e-03 3.469459e-03 4.877046e-03 4.801008e-03 6.717121e-03 4.506092e-06 3.466935e-03 1.660057e-03 1.659770e-03 1.242214e-02 1.077100e-02 1.242984e-02 
    43.5                3.310392e-03 3.308135e-03 4.552370e-03 4.391061e-03 6.518376e-03 4.183049e-06 3.308542e-03 1.571592e-03 1.571022e-03 1.169493e-02 1.036700e-02 1.162809e-02 
    44.5                3.586553e-03 3.588100e-03 4.631562e-03 4.437022e-03 6.823999e-03 4.503550e-06 3.582259e-03 1.588787e-03 1.588294e-03 1.201895e-02 1.105195e-02 1.210571e-02 
    45.5                3.834093e-03 3.832454e-03 4.936753e-03 4.558293e-03 7.509998e-03 4.428794e-06 3.831351e-03 1.661446e-03 1.661048e-03 1.281637e-02 1.196826e-02 1.276296e-02 
    46.5                3.795751e-03 3.797834e-03 4.762795e-03 4.377820e-03 7.353606e-03 4.400421e-06 3.794013e-03 1.585102e-03 1.584483e-03 1.241330e-02 1.179405e-02 1.242691e-02 
    47.5                3.964572e-03 3.960069e-03 4.784081e-03 4.307729e-03 7.626673e-03 4.360938e-06 3.960658e-03 1.573989e-03 1.573399e-03 1.259019e-02 1.226435e-02 1.266780e-02 
    48.5                4.086387e-03 4.088037e-03 4.671787e-03 4.096772e-03 7.799353e-03 4.493201e-06 4.082627e-03 1.628606e-03 1.628186e-03 1.248842e-02 1.261390e-02 1.263424e-02 
    49.5                4.522369e-03 4.524764e-03 4.894487e-03 4.155453e-03 8.628568e-03 4.614757e-06 4.519710e-03 1.669487e-03 1.668729e-03 1.334028e-02 1.393838e-02 1.349937e-02 
    50.5                4.871688e-03 4.875533e-03 5.070231e-03 4.221989e-03 9.186243e-03 4.990119e-06 4.867545e-03 1.738278e-03 1.737432e-03 1.393649e-02 1.494857e-02 1.421139e-02 
    51.5                5.618710e-03 5.620763e-03 5.409975e-03 4.304738e-03 1.048184e-02 5.469649e-06 5.612970e-03 1.839221e-03 1.838623e-03 1.526251e-02 1.714992e-02 1.570967e-02 
    52.5                6.178632e-03 6.188425e-03 5.641283e-03 4.232454e-03 1.179874e-02 5.520055e-06 6.174231e-03 1.910828e-03 1.909666e-03 1.645377e-02 1.905431e-02 1.676656e-02 
    53.5                6.228421e-03 6.230964e-03 5.428332e-03 3.921949e-03 1.201331e-02 5.440004e-06 6.224231e-03 1.939047e-03 1.938384e-03 1.629448e-02 1.930172e-02 1.652115e-02 
    54.5                6.363283e-03 6.356326e-03 5.327871e-03 3.722428e-03 1.223079e-02 5.330651e-06 6.359981e-03 1.943447e-03 1.943200e-03 1.627707e-02 1.966554e-02 1.655199e-02 
    55.5                6.090220e-03 6.084450e-03 5.063252e-03 3.427299e-03 1.208251e-02 5.010881e-06 6.085680e-03 1.907731e-03 1.906847e-03 1.578312e-02 1.911861e-02 1.573272e-02 
    56.5                6.087368e-03 6.086691e-03 4.871679e-03 3.253423e-03 1.182639e-02 4.969498e-06 6.082549e-03 1.881933e-03 1.881323e-03 1.533691e-02 1.890863e-02 1.549010e-02 
    57.5                5.769654e-03 5.764344e-03 4.602825e-03 3.004466e-03 1.137716e-02 4.557387e-06 5.765858e-03 1.825867e-03 1.825248e-03 1.460358e-02 1.805675e-02 1.462694e-02 
    58.5                5.300305e-03 5.299404e-03 4.107508e-03 2.607616e-03 1.046235e-02 4.163128e-06 5.297984e-03 1.696955e-03 1.696283e-03 1.324739e-02 1.660250e-02 1.327348e-02 
    59.5                5.054046e-03 5.050782e-03 3.805622e-03 2.372241e-03 9.891388e-03 3.938171e-06 5.050084e-03 1.567181e-03 1.566829e-03 1.241085e-02 1.575327e-02 1.249625e-02 
    60.5                4.843101e-03 4.834652e-03 3.596936e-03 2.176722e-03 9.547821e-03 3.614518e-06 4.840468e-03 1.425882e-03 1.425731e-03 1.184094e-02 1.514040e-02 1.188719e-02 
    61.5                4.388888e-03 4.387780e-03 3.154632e-03 1.854094e-03 8.643297e-03 3.353988e-06 4.385954e-03 1.256182e-03 1.255684e-03 1.059564e-02 1.373319e-02 1.065039e-02 
    62.5                3.903354e-03 3.897729e-03 2.766287e-03 1.522294e-03 7.971756e-03 2.695023e-06 3.901721e-03 1.095209e-03 1.094828e-03 9.559693e-03 1.241143e-02 9.385933e-03 
    63.5                3.191889e-03 3.184756e-03 2.197993e-03 1.178294e-03 6.510130e-03 2.199833e-06 3.190614e-03 9.134914e-04 9.133297e-04 7.745092e-03 1.014353e-02 7.593451e-03 
    64.5                2.616939e-03 2.613609e-03 1.780094e-03 9.295813e-04 5.361680e-03 1.772293e-06 2.616159e-03 7.414455e-04 7.411601e-04 6.328744e-03 8.336160e-03 6.198196e-03 
    65.5                2.073355e-03 2.071413e-03 1.381448e-03 6.991160e-04 4.258948e-03 1.400588e-06 2.073000e-03 5.706083e-04 5.704103e-04 4.985979e-03 6.615474e-03 4.874170e-03 
    66.5                1.628616e-03 1.624945e-03 1.062171e-03 5.069298e-04 3.413671e-03 1.039708e-06 1.628524e-03 4.253988e-04 4.252335e-04 3.940093e-03 5.243432e-03 3.796428e-03 
    67.5                1.172633e-03 1.167680e-03 7.505964e-04 3.368683e-04 2.503316e-03 7.010334e-07 1.172786e-03 2.903900e-04 2.903395e-04 2.853479e-03 3.807655e-03 2.711741e-03 
    68.5                7.645311e-04 7.618941e-04 4.774229e-04 1.954048e-04 1.682116e-03 4.375460e-07 7.648628e-04 1.774257e-04 1.773357e-04 1.886780e-03 2.522071e-03 1.753013e-03 
    69.5                4.491565e-04 4.473047e-04 2.727395e-04 9.755360e-05 1.027200e-03 2.240363e-07 4.497251e-04 9.344370e-05 9.341796e-05 1.131209e-03 1.509062e-03 1.019834e-03 
    70.5                2.119854e-04 2.109389e-04 1.246398e-04 3.557701e-05 5.141126e-04 8.981385e-08 2.123554e-04 3.930058e-05 3.928364e-05 5.546534e-04 7.344172e-04 4.763015e-04 
    71.5                6.412567e-05 6.378091e-05 3.941204e-05 6.916433e-06 1.850017e-04 1.749077e-08 6.438324e-05 1.079884e-05 1.079499e-05 1.947081e-04 2.451503e-04 1.443209e-04 
    72.5                9.659559e-06 9.557721e-06 6.081767e-06 3.761777e-07 3.227729e-05 1.630662e-09 9.732531e-06 1.610630e-06 1.612114e-06 3.332735e-05 4.057871e-05 2.162532e-05 
    73.5                4.986523e-07 4.925550e-07 4.334863e-07 9.197048e-11 2.450115e-06 0.000000e+00 5.061639e-07 6.730830e-08 6.729558e-08 2.496587e-06 2.742041e-06 1.150749e-06 
    74.5                0.000000e+00 0.000000e+00 0.000000e+00 0.000000e+00 0.000000e+00 0.000000e+00 0.000000e+00 0.000000e+00 0.000000e+00 0.000000e+00 0.000000e+00 0.000000e+00 
    75.5                0.000000e+00 0.000000e+00 0.000000e+00 0.000000e+00 0.000000e+00 0.000000e+00 0.000000e+00 0.000000e+00 0.000000e+00 0.000000e+00 0.000000e+00 0.000000e+00 
    76.5                0.000000e+00 0.000000e+00 0.000000e+00 0.000000e+00 0.000000e+00 0.000000e+00 0.000000e+00 0.000000e+00 0.000000e+00 0.000000e+00 0.000000e+00 0.000000e+00 
    77.5                0.000000e+00 0.000000e+00 0.000000e+00 0.000000e+00 0.000000e+00 0.000000e+00 0.000000e+00 0.000000e+00 0.000000e+00 0.000000e+00 0.000000e+00 0.000000e+00 
    78.5                0.000000e+00 0.000000e+00 0.000000e+00 0.000000e+00 0.000000e+00 0.000000e+00 0.000000e+00 0.000000e+00 0.000000e+00 0.000000e+00 0.000000e+00 0.000000e+00 
    79.5                0.000000e+00 0.000000e+00 0.000000e+00 0.000000e+00 0.000000e+00 0.000000e+00 0.000000e+00 0.000000e+00 0.000000e+00 0.000000e+00 0.000000e+00 0.000000e+00 


