# 80 rows of flux data
# 12 columns of flux data
# 
# total cross-sectional flux  2.137464e+00 /m^2/yr
#
#                             +x ram      -x wake      +y port -y starboard    +z zenith     -z nadir        Earth          Sun     anti-Sun      rot (x)      rot (y)      rot (z) 
# average speed (km/s)         24.08        24.08        19.58        24.85        22.05        24.73        24.08        24.33        24.33        23.18        23.64        23.93 
# total flux (#/m2/yr)  6.688470e-01 6.686728e-01 2.552781e-01 9.478510e-01 5.759542e-01 1.408062e-03 6.635392e-01 9.346163e-01 9.344130e-01 1.414830e+00 1.570807e+00 1.998910e+00 
# velocity (km/s)
     0.5                0.000000e+00 0.000000e+00 0.000000e+00 0.000000e+00 0.000000e+00 0.000000e+00 0.000000e+00 0.000000e+00 0.000000e+00 0.000000e+00 0.000000e+00 0.000000e+00 
     1.5                0.000000e+00 0.000000e+00 0.000000e+00 0.000000e+00 0.000000e+00 0.000000e+00 0.000000e+00 0.000000e+00 0.000000e+00 0.000000e+00 0.000000e+00 0.000000e+00 
     2.5                1.037633e-06 1.077270e-06 0.000000e+00 4.748285e-06 3.618474e-06 0.000000e+00 1.078963e-06 7.944932e-07 7.822743e-07 6.040036e-06 4.386940e-06 5.404099e-06 
     3.5                7.758459e-05 7.814032e-05 6.108911e-06 1.529233e-04 1.133678e-04 4.542375e-08 7.788883e-05 5.732066e-05 5.730990e-05 2.071952e-04 2.109404e-04 2.479981e-04 
     4.5                4.058107e-04 4.066773e-04 8.991454e-05 6.970122e-04 5.435256e-04 5.116608e-07 4.049402e-04 3.143214e-04 3.143303e-04 1.036984e-03 1.078094e-03 1.257429e-03 
     5.5                1.243583e-03 1.245087e-03 4.329434e-04 1.796356e-03 1.647918e-03 1.744404e-06 1.240415e-03 1.049145e-03 1.048575e-03 3.046341e-03 3.282859e-03 3.710339e-03 
     6.5                2.577837e-03 2.579192e-03 1.412521e-03 3.338248e-03 3.346054e-03 3.945472e-06 2.569390e-03 2.285357e-03 2.284852e-03 6.399022e-03 6.734997e-03 7.785018e-03 
     7.5                4.551027e-03 4.551668e-03 2.649940e-03 5.933966e-03 6.021436e-03 6.935967e-06 4.534794e-03 4.211193e-03 4.209883e-03 1.155633e-02 1.197328e-02 1.388735e-02 
     8.5                7.135373e-03 7.136801e-03 4.438883e-03 8.768552e-03 9.114968e-03 1.164906e-05 7.109430e-03 6.800797e-03 6.800267e-03 1.763293e-02 1.852845e-02 2.158495e-02 
     9.5                9.621152e-03 9.621561e-03 6.574223e-03 1.087708e-02 1.219310e-02 1.588708e-05 9.577411e-03 9.811405e-03 9.809094e-03 2.351539e-02 2.492580e-02 2.883860e-02 
    10.5                1.195287e-02 1.195197e-02 9.068622e-03 1.333185e-02 1.536996e-02 2.007124e-05 1.189013e-02 1.321989e-02 1.321856e-02 3.003334e-02 3.110640e-02 3.635348e-02 
    11.5                1.404943e-02 1.404529e-02 1.083134e-02 1.544225e-02 1.811980e-02 2.317988e-05 1.396496e-02 1.648909e-02 1.648482e-02 3.521835e-02 3.659144e-02 4.269305e-02 
    12.5                1.551973e-02 1.551191e-02 1.215589e-02 1.724754e-02 1.982417e-02 2.653751e-05 1.541135e-02 1.940200e-02 1.940024e-02 3.908427e-02 4.038390e-02 4.747518e-02 
    13.5                1.721928e-02 1.721784e-02 1.273673e-02 2.017561e-02 2.167297e-02 2.983503e-05 1.709729e-02 2.257480e-02 2.257025e-02 4.329285e-02 4.463587e-02 5.288394e-02 
    14.5                1.908812e-02 1.908363e-02 1.339183e-02 2.296884e-02 2.292028e-02 3.454458e-05 1.894175e-02 2.576405e-02 2.575911e-02 4.700969e-02 4.877417e-02 5.854078e-02 
    15.5                2.083221e-02 2.082596e-02 1.366798e-02 2.571175e-02 2.360433e-02 3.911894e-05 2.066532e-02 2.884888e-02 2.884445e-02 5.003375e-02 5.235468e-02 6.365415e-02 
    16.5                2.242977e-02 2.242786e-02 1.388277e-02 2.834543e-02 2.420335e-02 4.376151e-05 2.224882e-02 3.159963e-02 3.159354e-02 5.283594e-02 5.559657e-02 6.839483e-02 
    17.5                2.378048e-02 2.377336e-02 1.370097e-02 3.094072e-02 2.445155e-02 4.792580e-05 2.357804e-02 3.416474e-02 3.415812e-02 5.496256e-02 5.816650e-02 7.242440e-02 
    18.5                2.496136e-02 2.495334e-02 1.336206e-02 3.300250e-02 2.434249e-02 5.147370e-05 2.474472e-02 3.631372e-02 3.630645e-02 5.630005e-02 6.020894e-02 7.564709e-02 
    19.5                2.579904e-02 2.579317e-02 1.310027e-02 3.466752e-02 2.422327e-02 5.437490e-05 2.557446e-02 3.788545e-02 3.787834e-02 5.738239e-02 6.165084e-02 7.807224e-02 
    20.5                2.652554e-02 2.652319e-02 1.260215e-02 3.652238e-02 2.391387e-02 5.666303e-05 2.629505e-02 3.920871e-02 3.919940e-02 5.824165e-02 6.278320e-02 8.028142e-02 
    21.5                2.740385e-02 2.739890e-02 1.182997e-02 3.869410e-02 2.380529e-02 5.939530e-05 2.716111e-02 4.075663e-02 4.074859e-02 5.928032e-02 6.430156e-02 8.277031e-02 
    22.5                2.821243e-02 2.820695e-02 1.137199e-02 4.028256e-02 2.374580e-02 6.202006e-05 2.796282e-02 4.200173e-02 4.199273e-02 6.014216e-02 6.575777e-02 8.494723e-02 
    23.5                2.861240e-02 2.860642e-02 1.085192e-02 4.134871e-02 2.317718e-02 6.381734e-05 2.835925e-02 4.258226e-02 4.257280e-02 6.017073e-02 6.613713e-02 8.600807e-02 
    24.5                2.879712e-02 2.879122e-02 1.010098e-02 4.228611e-02 2.259391e-02 6.473661e-05 2.854327e-02 4.282147e-02 4.281205e-02 5.987961e-02 6.614884e-02 8.645066e-02 
    25.5                2.880489e-02 2.879825e-02 9.247418e-03 4.282537e-02 2.184599e-02 6.518555e-05 2.855284e-02 4.268305e-02 4.267334e-02 5.902662e-02 6.573712e-02 8.622292e-02 
    26.5                2.825890e-02 2.825145e-02 8.270996e-03 4.230318e-02 2.079028e-02 6.449476e-05 2.801374e-02 4.163939e-02 4.162953e-02 5.697772e-02 6.416431e-02 8.421131e-02 
    27.5                2.748794e-02 2.748184e-02 7.295728e-03 4.182103e-02 1.980599e-02 6.241247e-05 2.725180e-02 4.039466e-02 4.038599e-02 5.499615e-02 6.218552e-02 8.186147e-02 
    28.5                2.663855e-02 2.663103e-02 6.345967e-03 4.084533e-02 1.876609e-02 6.037201e-05 2.641194e-02 3.888741e-02 3.887819e-02 5.258763e-02 6.005146e-02 7.903635e-02 
    29.5                2.548215e-02 2.547460e-02 5.506424e-03 3.940985e-02 1.757765e-02 5.753224e-05 2.526770e-02 3.698543e-02 3.697615e-02 4.980241e-02 5.724484e-02 7.544906e-02 
    30.5                2.417784e-02 2.417177e-02 4.687736e-03 3.767480e-02 1.633299e-02 5.428104e-05 2.397919e-02 3.484457e-02 3.483701e-02 4.673681e-02 5.414355e-02 7.140593e-02 
    31.5                2.265324e-02 2.264569e-02 3.833592e-03 3.549917e-02 1.498520e-02 5.052920e-05 2.246888e-02 3.234234e-02 3.233444e-02 4.319762e-02 5.057087e-02 6.664818e-02 
    32.5                2.085948e-02 2.085233e-02 3.051500e-03 3.280959e-02 1.355254e-02 4.629507e-05 2.069415e-02 2.946360e-02 2.945671e-02 3.924202e-02 4.644811e-02 6.112812e-02 
    33.5                1.881585e-02 1.880928e-02 2.406569e-03 2.964915e-02 1.204484e-02 4.162032e-05 1.866998e-02 2.630094e-02 2.629387e-02 3.497907e-02 4.181193e-02 5.494133e-02 
    34.5                1.675281e-02 1.674598e-02 1.880173e-03 2.644021e-02 1.058267e-02 3.670860e-05 1.662533e-02 2.318003e-02 2.317465e-02 3.081331e-02 3.715529e-02 4.876854e-02 
    35.5                1.466871e-02 1.466264e-02 1.418350e-03 2.320193e-02 9.147450e-03 3.198661e-05 1.455967e-02 2.007792e-02 2.007246e-02 2.670563e-02 3.247785e-02 4.259506e-02 
    36.5                1.265904e-02 1.265366e-02 1.032090e-03 2.001752e-02 7.783372e-03 2.742271e-05 1.256801e-02 1.711319e-02 1.710891e-02 2.276741e-02 2.797148e-02 3.662975e-02 
    37.5                1.068249e-02 1.067693e-02 7.279785e-04 1.688491e-02 6.491390e-03 2.310910e-05 1.060685e-02 1.426577e-02 1.426256e-02 1.900515e-02 2.356713e-02 3.081878e-02 
    38.5                8.780212e-03 8.775414e-03 5.049044e-04 1.376984e-02 5.245104e-03 1.909024e-05 8.720389e-03 1.154513e-02 1.154214e-02 1.537003e-02 1.932598e-02 2.519743e-02 
    39.5                6.915957e-03 6.911603e-03 3.333158e-04 1.073459e-02 4.055690e-03 1.523788e-05 6.870380e-03 8.940200e-03 8.937805e-03 1.189396e-02 1.518588e-02 1.973207e-02 
    40.5                5.191976e-03 5.188059e-03 2.106837e-04 7.953320e-03 2.985267e-03 1.163281e-05 5.158797e-03 6.594329e-03 6.592791e-03 8.758806e-03 1.137201e-02 1.471867e-02 
    41.5                3.707498e-03 3.704735e-03 1.255960e-04 5.621539e-03 2.098030e-03 8.425528e-06 3.684789e-03 4.632551e-03 4.631032e-03 6.156516e-03 8.104941e-03 1.045831e-02 
    42.5                2.524470e-03 2.522113e-03 7.076385e-05 3.758844e-03 1.396556e-03 5.866112e-06 2.509419e-03 3.090896e-03 3.090341e-03 4.097577e-03 5.503091e-03 7.064725e-03 
    43.5                1.574134e-03 1.572478e-03 3.849872e-05 2.255316e-03 8.355655e-04 3.823072e-06 1.565248e-03 1.875380e-03 1.874885e-03 2.452145e-03 3.414887e-03 4.340825e-03 
    44.5                8.613207e-04 8.600995e-04 1.866107e-05 1.175520e-03 4.344601e-04 2.213612e-06 8.565620e-04 9.947948e-04 9.946251e-04 1.275641e-03 1.857624e-03 2.332886e-03 
    45.5                3.896711e-04 3.891207e-04 7.779717e-06 4.887363e-04 1.804531e-04 1.096510e-06 3.877696e-04 4.318004e-04 4.315269e-04 5.302035e-04 8.330031e-04 1.025117e-03 
    46.5                1.289476e-04 1.286755e-04 2.673862e-06 1.437205e-04 5.308791e-05 4.203891e-07 1.283012e-04 1.361234e-04 1.361629e-04 1.563148e-04 2.728318e-04 3.275388e-04 
    47.5                2.982956e-05 2.982073e-05 6.416046e-07 2.821869e-05 1.043080e-05 1.126422e-07 2.974591e-05 2.976551e-05 2.973464e-05 3.081888e-05 6.236717e-05 7.247092e-05 
    48.5                3.913053e-06 3.916354e-06 9.890558e-08 2.574719e-06 9.573431e-07 1.844246e-08 3.907976e-06 3.549248e-06 3.552114e-06 2.858444e-06 8.006131e-06 8.755527e-06 
    49.5                1.008879e-07 9.881508e-08 4.209085e-09 2.283921e-08 8.801372e-09 7.832113e-10 9.853154e-08 8.054585e-08 8.177659e-08 2.909702e-08 2.001222e-07 2.026920e-07 
    50.5                0.000000e+00 0.000000e+00 0.000000e+00 0.000000e+00 0.000000e+00 0.000000e+00 0.000000e+00 0.000000e+00 0.000000e+00 0.000000e+00 0.000000e+00 0.000000e+00 
    51.5                0.000000e+00 0.000000e+00 0.000000e+00 0.000000e+00 0.000000e+00 0.000000e+00 0.000000e+00 0.000000e+00 0.000000e+00 0.000000e+00 0.000000e+00 0.000000e+00 
    52.5                0.000000e+00 0.000000e+00 0.000000e+00 0.000000e+00 0.000000e+00 0.000000e+00 0.000000e+00 0.000000e+00 0.000000e+00 0.000000e+00 0.000000e+00 0.000000e+00 
    53.5                0.000000e+00 0.000000e+00 0.000000e+00 0.000000e+00 0.000000e+00 0.000000e+00 0.000000e+00 0.000000e+00 0.000000e+00 0.000000e+00 0.000000e+00 0.000000e+00 
    54.5                0.000000e+00 0.000000e+00 0.000000e+00 0.000000e+00 0.000000e+00 0.000000e+00 0.000000e+00 0.000000e+00 0.000000e+00 0.000000e+00 0.000000e+00 0.000000e+00 
    55.5                0.000000e+00 0.000000e+00 0.000000e+00 0.000000e+00 0.000000e+00 0.000000e+00 0.000000e+00 0.000000e+00 0.000000e+00 0.000000e+00 0.000000e+00 0.000000e+00 
    56.5                0.000000e+00 0.000000e+00 0.000000e+00 0.000000e+00 0.000000e+00 0.000000e+00 0.000000e+00 0.000000e+00 0.000000e+00 0.000000e+00 0.000000e+00 0.000000e+00 
    57.5                0.000000e+00 0.000000e+00 0.000000e+00 0.000000e+00 0.000000e+00 0.000000e+00 0.000000e+00 0.000000e+00 0.000000e+00 0.000000e+00 0.000000e+00 0.000000e+00 
    58.5                0.000000e+00 0.000000e+00 0.000000e+00 0.000000e+00 0.000000e+00 0.000000e+00 0.000000e+00 0.000000e+00 0.000000e+00 0.000000e+00 0.000000e+00 0.000000e+00 
    59.5                0.000000e+00 0.000000e+00 0.000000e+00 0.000000e+00 0.000000e+00 0.000000e+00 0.000000e+00 0.000000e+00 0.000000e+00 0.000000e+00 0.000000e+00 0.000000e+00 
    60.5                0.000000e+00 0.000000e+00 0.000000e+00 0.000000e+00 0.000000e+00 0.000000e+00 0.000000e+00 0.000000e+00 0.000000e+00 0.000000e+00 0.000000e+00 0.000000e+00 
    61.5                0.000000e+00 0.000000e+00 0.000000e+00 0.000000e+00 0.000000e+00 0.000000e+00 0.000000e+00 0.000000e+00 0.000000e+00 0.000000e+00 0.000000e+00 0.000000e+00 
    62.5                0.000000e+00 0.000000e+00 0.000000e+00 0.000000e+00 0.000000e+00 0.000000e+00 0.000000e+00 0.000000e+00 0.000000e+00 0.000000e+00 0.000000e+00 0.000000e+00 
    63.5                0.000000e+00 0.000000e+00 0.000000e+00 0.000000e+00 0.000000e+00 0.000000e+00 0.000000e+00 0.000000e+00 0.000000e+00 0.000000e+00 0.000000e+00 0.000000e+00 
    64.5                0.000000e+00 0.000000e+00 0.000000e+00 0.000000e+00 0.000000e+00 0.000000e+00 0.000000e+00 0.000000e+00 0.000000e+00 0.000000e+00 0.000000e+00 0.000000e+00 
    65.5                0.000000e+00 0.000000e+00 0.000000e+00 0.000000e+00 0.000000e+00 0.000000e+00 0.000000e+00 0.000000e+00 0.000000e+00 0.000000e+00 0.000000e+00 0.000000e+00 
    66.5                0.000000e+00 0.000000e+00 0.000000e+00 0.000000e+00 0.000000e+00 0.000000e+00 0.000000e+00 0.000000e+00 0.000000e+00 0.000000e+00 0.000000e+00 0.000000e+00 
    67.5                0.000000e+00 0.000000e+00 0.000000e+00 0.000000e+00 0.000000e+00 0.000000e+00 0.000000e+00 0.000000e+00 0.000000e+00 0.000000e+00 0.000000e+00 0.000000e+00 
    68.5                0.000000e+00 0.000000e+00 0.000000e+00 0.000000e+00 0.000000e+00 0.000000e+00 0.000000e+00 0.000000e+00 0.000000e+00 0.000000e+00 0.000000e+00 0.000000e+00 
    69.5                0.000000e+00 0.000000e+00 0.000000e+00 0.000000e+00 0.000000e+00 0.000000e+00 0.000000e+00 0.000000e+00 0.000000e+00 0.000000e+00 0.000000e+00 0.000000e+00 
    70.5                0.000000e+00 0.000000e+00 0.000000e+00 0.000000e+00 0.000000e+00 0.000000e+00 0.000000e+00 0.000000e+00 0.000000e+00 0.000000e+00 0.000000e+00 0.000000e+00 
    71.5                0.000000e+00 0.000000e+00 0.000000e+00 0.000000e+00 0.000000e+00 0.000000e+00 0.000000e+00 0.000000e+00 0.000000e+00 0.000000e+00 0.000000e+00 0.000000e+00 
    72.5                0.000000e+00 0.000000e+00 0.000000e+00 0.000000e+00 0.000000e+00 0.000000e+00 0.000000e+00 0.000000e+00 0.000000e+00 0.000000e+00 0.000000e+00 0.000000e+00 
    73.5                0.000000e+00 0.000000e+00 0.000000e+00 0.000000e+00 0.000000e+00 0.000000e+00 0.000000e+00 0.000000e+00 0.000000e+00 0.000000e+00 0.000000e+00 0.000000e+00 
    74.5                0.000000e+00 0.000000e+00 0.000000e+00 0.000000e+00 0.000000e+00 0.000000e+00 0.000000e+00 0.000000e+00 0.000000e+00 0.000000e+00 0.000000e+00 0.000000e+00 
    75.5                0.000000e+00 0.000000e+00 0.000000e+00 0.000000e+00 0.000000e+00 0.000000e+00 0.000000e+00 0.000000e+00 0.000000e+00 0.000000e+00 0.000000e+00 0.000000e+00 
    76.5                0.000000e+00 0.000000e+00 0.000000e+00 0.000000e+00 0.000000e+00 0.000000e+00 0.000000e+00 0.000000e+00 0.000000e+00 0.000000e+00 0.000000e+00 0.000000e+00 
    77.5                0.000000e+00 0.000000e+00 0.000000e+00 0.000000e+00 0.000000e+00 0.000000e+00 0.000000e+00 0.000000e+00 0.000000e+00 0.000000e+00 0.000000e+00 0.000000e+00 
    78.5                0.000000e+00 0.000000e+00 0.000000e+00 0.000000e+00 0.000000e+00 0.000000e+00 0.000000e+00 0.000000e+00 0.000000e+00 0.000000e+00 0.000000e+00 0.000000e+00 
    79.5                0.000000e+00 0.000000e+00 0.000000e+00 0.000000e+00 0.000000e+00 0.000000e+00 0.000000e+00 0.000000e+00 0.000000e+00 0.000000e+00 0.000000e+00 0.000000e+00 


