# 80 rows of flux data
# 12 columns of flux data
# 
# total cross-sectional flux  2.184531e+00 /m^2/yr
#
#                       +x vernal eq.           -x           +y           -y +z eclip. N. -z eclip. S.        Earth          Sun     anti-Sun      rot (x)      rot (y)      rot (z) 
# average speed (km/s)         23.93        24.55        24.18        24.31        19.30        21.93        24.50        24.65        24.66        23.62        23.62        24.25 
# total flux (#/m2/yr)  6.512662e-01 6.798766e-01 6.628653e-01 6.687500e-01 3.060974e-01 1.324686e-01 1.237500e+00 9.475057e-01 9.603739e-01 1.485445e+00 1.485071e+00 2.091315e+00 
# velocity (km/s)
     0.5                0.000000e+00 0.000000e+00 0.000000e+00 0.000000e+00 0.000000e+00 0.000000e+00 0.000000e+00 0.000000e+00 0.000000e+00 0.000000e+00 0.000000e+00 0.000000e+00 
     1.5                0.000000e+00 0.000000e+00 0.000000e+00 0.000000e+00 0.000000e+00 0.000000e+00 0.000000e+00 0.000000e+00 0.000000e+00 0.000000e+00 0.000000e+00 0.000000e+00 
     2.5                6.526663e-07 1.006264e-06 2.906941e-06 2.857636e-06 1.885939e-06 3.210564e-08 1.859390e-06 2.935636e-07 1.594170e-06 6.161207e-06 2.731075e-06 6.158939e-06 
     3.5                7.140316e-05 4.692153e-05 6.248236e-05 6.120751e-05 4.961956e-05 6.485496e-06 9.565710e-05 2.730001e-05 5.623863e-05 1.443938e-04 1.405392e-04 1.903458e-04 
     4.5                4.496189e-04 2.216416e-04 3.473689e-04 3.296123e-04 2.791830e-04 6.339220e-05 5.690978e-04 1.922123e-04 2.934400e-04 8.179163e-04 8.103219e-04 1.056962e-03 
     5.5                1.291919e-03 8.201113e-04 1.116309e-03 1.062243e-03 9.786490e-04 2.553424e-04 1.904203e-03 7.780623e-04 9.719210e-04 2.705234e-03 2.647646e-03 3.370597e-03 
     6.5                2.736314e-03 2.091681e-03 2.485086e-03 2.368726e-03 2.251770e-03 6.312937e-04 4.239195e-03 1.970040e-03 2.216181e-03 6.102667e-03 6.072138e-03 7.605047e-03 
     7.5                4.640528e-03 3.985834e-03 4.370554e-03 4.263279e-03 4.165197e-03 1.127599e-03 7.467357e-03 3.813128e-03 4.023856e-03 1.095389e-02 1.096631e-02 1.354946e-02 
     8.5                7.132071e-03 6.519826e-03 6.892953e-03 6.787417e-03 6.437375e-03 1.851608e-03 1.203794e-02 6.420618e-03 6.501870e-03 1.727612e-02 1.726298e-02 2.146512e-02 
     9.5                9.782180e-03 9.180681e-03 9.550843e-03 9.428385e-03 9.004741e-03 2.629426e-03 1.676437e-02 9.531890e-03 9.528777e-03 2.405312e-02 2.406482e-02 2.979900e-02 
    10.5                1.225396e-02 1.173176e-02 1.204406e-02 1.194002e-02 1.188790e-02 3.260566e-03 2.070250e-02 1.296857e-02 1.304490e-02 3.073426e-02 3.072538e-02 3.767888e-02 
    11.5                1.420662e-02 1.378660e-02 1.405241e-02 1.395351e-02 1.421397e-02 3.723927e-03 2.422973e-02 1.633616e-02 1.652480e-02 3.613924e-02 3.613019e-02 4.399144e-02 
    12.5                1.562942e-02 1.555273e-02 1.561775e-02 1.558653e-02 1.564044e-02 4.040894e-03 2.690744e-02 1.937327e-02 1.958705e-02 4.014546e-02 4.014827e-02 4.899988e-02 
    13.5                1.736149e-02 1.696593e-02 1.719920e-02 1.711420e-02 1.657080e-02 4.416913e-03 2.976468e-02 2.233369e-02 2.254974e-02 4.381174e-02 4.381841e-02 5.390634e-02 
    14.5                1.911748e-02 1.861850e-02 1.897052e-02 1.885979e-02 1.695415e-02 4.884102e-03 3.327175e-02 2.545412e-02 2.570985e-02 4.747541e-02 4.738716e-02 5.935056e-02 
    15.5                2.064343e-02 2.035478e-02 2.057914e-02 2.051383e-02 1.676471e-02 5.295942e-03 3.661482e-02 2.842921e-02 2.871660e-02 5.051225e-02 5.041545e-02 6.448105e-02 
    16.5                2.223770e-02 2.197292e-02 2.216253e-02 2.209409e-02 1.663576e-02 5.596554e-03 3.972399e-02 3.123441e-02 3.154165e-02 5.344297e-02 5.341257e-02 6.948040e-02 
    17.5                2.343222e-02 2.342646e-02 2.344404e-02 2.343131e-02 1.607545e-02 5.843442e-03 4.242124e-02 3.373534e-02 3.406287e-02 5.558151e-02 5.556474e-02 7.361286e-02 
    18.5                2.443194e-02 2.462387e-02 2.457682e-02 2.460315e-02 1.524225e-02 6.060869e-03 4.494564e-02 3.593487e-02 3.628432e-02 5.725890e-02 5.713912e-02 7.715367e-02 
    19.5                2.522121e-02 2.571815e-02 2.543614e-02 2.551790e-02 1.461945e-02 6.177151e-03 4.682617e-02 3.770296e-02 3.807310e-02 5.856648e-02 5.855749e-02 8.002308e-02 
    20.5                2.582520e-02 2.635628e-02 2.601873e-02 2.610913e-02 1.374762e-02 6.163518e-03 4.818023e-02 3.891486e-02 3.931135e-02 5.914559e-02 5.919416e-02 8.192042e-02 
    21.5                2.667220e-02 2.693297e-02 2.678902e-02 2.683277e-02 1.287903e-02 6.150696e-03 4.981424e-02 4.022952e-02 4.066166e-02 5.999970e-02 5.997874e-02 8.421256e-02 
    22.5                2.740117e-02 2.777825e-02 2.758730e-02 2.764790e-02 1.231921e-02 6.197645e-03 5.162832e-02 4.159886e-02 4.206831e-02 6.122955e-02 6.117926e-02 8.671985e-02 
    23.5                2.771648e-02 2.841340e-02 2.800317e-02 2.813160e-02 1.145402e-02 6.140587e-03 5.267765e-02 4.236664e-02 4.286796e-02 6.153206e-02 6.152895e-02 8.817340e-02 
    24.5                2.783685e-02 2.854210e-02 2.813557e-02 2.826471e-02 1.059569e-02 5.960897e-03 5.310038e-02 4.256946e-02 4.310351e-02 6.124609e-02 6.122789e-02 8.857600e-02 
    25.5                2.770842e-02 2.860138e-02 2.809132e-02 2.826178e-02 9.662594e-03 5.715326e-03 5.327004e-02 4.247673e-02 4.303936e-02 6.062706e-02 6.058315e-02 8.848567e-02 
    26.5                2.716474e-02 2.836133e-02 2.765333e-02 2.788413e-02 8.751543e-03 5.389086e-03 5.268679e-02 4.181380e-02 4.239001e-02 5.928161e-02 5.927293e-02 8.722847e-02 
    27.5                2.640103e-02 2.774540e-02 2.694662e-02 2.721123e-02 7.856511e-03 5.023082e-03 5.141581e-02 4.068291e-02 4.126246e-02 5.741034e-02 5.739942e-02 8.506200e-02 
    28.5                2.554882e-02 2.687334e-02 2.608626e-02 2.634955e-02 7.032282e-03 4.635693e-03 4.996711e-02 3.926409e-02 3.984386e-02 5.525278e-02 5.523895e-02 8.235562e-02 
    29.5                2.445166e-02 2.593612e-02 2.505032e-02 2.534625e-02 6.219173e-03 4.245363e-03 4.810462e-02 3.759718e-02 3.817118e-02 5.279722e-02 5.278773e-02 7.915595e-02 
    30.5                2.311220e-02 2.475684e-02 2.376682e-02 2.410049e-02 5.433967e-03 3.811304e-03 4.576593e-02 3.555625e-02 3.611343e-02 4.987701e-02 4.987860e-02 7.519109e-02 
    31.5                2.166317e-02 2.333776e-02 2.233871e-02 2.267825e-02 4.647526e-03 3.361151e-03 4.310660e-02 3.325163e-02 3.378613e-02 4.665586e-02 4.664123e-02 7.069992e-02 
    32.5                1.994512e-02 2.178006e-02 2.067708e-02 2.105461e-02 3.926783e-03 2.906898e-03 4.002993e-02 3.062861e-02 3.113193e-02 4.305189e-02 4.304317e-02 6.554633e-02 
    33.5                1.803222e-02 1.999107e-02 1.881408e-02 1.921813e-02 3.284486e-03 2.484227e-03 3.649992e-02 2.771645e-02 2.817861e-02 3.908596e-02 3.907673e-02 5.973374e-02 
    34.5                1.601113e-02 1.804128e-02 1.681276e-02 1.723460e-02 2.702831e-03 2.081133e-03 3.269992e-02 2.463722e-02 2.505325e-02 3.487552e-02 3.487932e-02 5.348562e-02 
    35.5                1.406443e-02 1.598573e-02 1.482082e-02 1.522102e-02 2.165012e-03 1.695305e-03 2.886311e-02 2.157076e-02 2.194052e-02 3.066937e-02 3.067670e-02 4.719609e-02 
    36.5                1.209480e-02 1.401435e-02 1.283891e-02 1.324310e-02 1.682117e-03 1.343140e-03 2.509587e-02 1.857384e-02 1.889445e-02 2.653867e-02 2.656374e-02 4.099041e-02 
    37.5                1.021983e-02 1.205710e-02 1.094756e-02 1.133380e-02 1.281254e-03 1.040058e-03 2.143307e-02 1.571139e-02 1.598627e-02 2.260562e-02 2.260000e-02 3.499586e-02 
    38.5                8.397436e-03 1.016087e-02 9.083750e-03 9.457053e-03 9.465625e-04 7.820882e-04 1.786427e-02 1.295785e-02 1.318445e-02 1.876251e-02 1.877889e-02 2.913752e-02 
    39.5                6.608037e-03 8.334029e-03 7.283688e-03 7.649595e-03 6.709619e-04 5.629785e-04 1.437983e-02 1.032861e-02 1.050728e-02 1.507728e-02 1.508504e-02 2.346362e-02 
    40.5                4.958379e-03 6.557385e-03 5.577625e-03 5.917686e-03 4.504290e-04 3.827705e-04 1.106259e-02 7.870513e-03 8.005115e-03 1.158331e-02 1.160269e-02 1.807265e-02 
    41.5                3.545874e-03 4.923772e-03 4.072710e-03 4.367022e-03 2.844695e-04 2.442648e-04 8.106190e-03 5.721894e-03 5.816819e-03 8.489750e-03 8.518802e-03 1.328048e-02 
    42.5                2.402831e-03 3.523403e-03 2.827788e-03 3.067884e-03 1.679952e-04 1.453181e-04 5.662475e-03 3.956311e-03 4.020641e-03 5.922075e-03 5.951841e-03 9.284726e-03 
    43.5                1.495606e-03 2.391923e-03 1.836625e-03 2.028940e-03 9.172609e-05 7.974459e-05 3.706989e-03 2.565646e-03 2.605611e-03 3.878340e-03 3.899770e-03 6.089085e-03 
    44.5                8.174161e-04 1.496985e-03 1.070251e-03 1.216511e-03 4.452341e-05 3.865816e-05 2.179972e-03 1.506458e-03 1.527477e-03 2.292134e-03 2.319475e-03 3.613608e-03 
    45.5                3.711524e-04 8.229748e-04 5.340093e-04 6.316430e-04 1.821757e-05 1.573667e-05 1.103997e-03 7.650061e-04 7.738256e-04 1.167534e-03 1.195813e-03 1.853278e-03 
    46.5                1.256605e-04 3.766441e-04 2.138576e-04 2.682574e-04 5.965001e-06 5.080774e-06 4.459943e-04 3.163349e-04 3.190096e-04 4.826380e-04 5.027541e-04 7.731009e-04 
    47.5                2.965454e-05 1.290057e-04 6.193404e-05 8.383526e-05 1.402768e-06 1.157383e-06 1.309412e-04 9.724100e-05 9.736599e-05 1.458778e-04 1.587380e-04 2.391202e-04 
    48.5                4.345839e-06 3.088280e-05 1.229484e-05 1.820676e-05 2.095564e-07 1.643464e-07 2.632515e-05 2.087589e-05 2.074851e-05 3.051300e-05 3.523591e-05 5.162697e-05 
    49.5                1.495885e-07 4.410176e-06 1.280853e-06 2.250722e-06 1.703552e-08 1.184349e-08 2.814969e-06 2.566933e-06 2.524756e-06 3.532239e-06 4.560057e-06 6.352402e-06 
    50.5                0.000000e+00 1.318492e-07 2.182110e-08 5.421875e-08 2.157620e-10 8.489882e-11 5.308391e-08 6.658358e-08 6.387188e-08 7.604348e-08 1.318499e-07 1.634156e-07 
    51.5                0.000000e+00 0.000000e+00 0.000000e+00 0.000000e+00 0.000000e+00 0.000000e+00 0.000000e+00 0.000000e+00 0.000000e+00 0.000000e+00 0.000000e+00 0.000000e+00 
    52.5                0.000000e+00 0.000000e+00 0.000000e+00 0.000000e+00 0.000000e+00 0.000000e+00 0.000000e+00 0.000000e+00 0.000000e+00 0.000000e+00 0.000000e+00 0.000000e+00 
    53.5                0.000000e+00 0.000000e+00 0.000000e+00 0.000000e+00 0.000000e+00 0.000000e+00 0.000000e+00 0.000000e+00 0.000000e+00 0.000000e+00 0.000000e+00 0.000000e+00 
    54.5                0.000000e+00 0.000000e+00 0.000000e+00 0.000000e+00 0.000000e+00 0.000000e+00 0.000000e+00 0.000000e+00 0.000000e+00 0.000000e+00 0.000000e+00 0.000000e+00 
    55.5                0.000000e+00 0.000000e+00 0.000000e+00 0.000000e+00 0.000000e+00 0.000000e+00 0.000000e+00 0.000000e+00 0.000000e+00 0.000000e+00 0.000000e+00 0.000000e+00 
    56.5                0.000000e+00 0.000000e+00 0.000000e+00 0.000000e+00 0.000000e+00 0.000000e+00 0.000000e+00 0.000000e+00 0.000000e+00 0.000000e+00 0.000000e+00 0.000000e+00 
    57.5                0.000000e+00 0.000000e+00 0.000000e+00 0.000000e+00 0.000000e+00 0.000000e+00 0.000000e+00 0.000000e+00 0.000000e+00 0.000000e+00 0.000000e+00 0.000000e+00 
    58.5                0.000000e+00 0.000000e+00 0.000000e+00 0.000000e+00 0.000000e+00 0.000000e+00 0.000000e+00 0.000000e+00 0.000000e+00 0.000000e+00 0.000000e+00 0.000000e+00 
    59.5                0.000000e+00 0.000000e+00 0.000000e+00 0.000000e+00 0.000000e+00 0.000000e+00 0.000000e+00 0.000000e+00 0.000000e+00 0.000000e+00 0.000000e+00 0.000000e+00 
    60.5                0.000000e+00 0.000000e+00 0.000000e+00 0.000000e+00 0.000000e+00 0.000000e+00 0.000000e+00 0.000000e+00 0.000000e+00 0.000000e+00 0.000000e+00 0.000000e+00 
    61.5                0.000000e+00 0.000000e+00 0.000000e+00 0.000000e+00 0.000000e+00 0.000000e+00 0.000000e+00 0.000000e+00 0.000000e+00 0.000000e+00 0.000000e+00 0.000000e+00 
    62.5                0.000000e+00 0.000000e+00 0.000000e+00 0.000000e+00 0.000000e+00 0.000000e+00 0.000000e+00 0.000000e+00 0.000000e+00 0.000000e+00 0.000000e+00 0.000000e+00 
    63.5                0.000000e+00 0.000000e+00 0.000000e+00 0.000000e+00 0.000000e+00 0.000000e+00 0.000000e+00 0.000000e+00 0.000000e+00 0.000000e+00 0.000000e+00 0.000000e+00 
    64.5                0.000000e+00 0.000000e+00 0.000000e+00 0.000000e+00 0.000000e+00 0.000000e+00 0.000000e+00 0.000000e+00 0.000000e+00 0.000000e+00 0.000000e+00 0.000000e+00 
    65.5                0.000000e+00 0.000000e+00 0.000000e+00 0.000000e+00 0.000000e+00 0.000000e+00 0.000000e+00 0.000000e+00 0.000000e+00 0.000000e+00 0.000000e+00 0.000000e+00 
    66.5                0.000000e+00 0.000000e+00 0.000000e+00 0.000000e+00 0.000000e+00 0.000000e+00 0.000000e+00 0.000000e+00 0.000000e+00 0.000000e+00 0.000000e+00 0.000000e+00 
    67.5                0.000000e+00 0.000000e+00 0.000000e+00 0.000000e+00 0.000000e+00 0.000000e+00 0.000000e+00 0.000000e+00 0.000000e+00 0.000000e+00 0.000000e+00 0.000000e+00 
    68.5                0.000000e+00 0.000000e+00 0.000000e+00 0.000000e+00 0.000000e+00 0.000000e+00 0.000000e+00 0.000000e+00 0.000000e+00 0.000000e+00 0.000000e+00 0.000000e+00 
    69.5                0.000000e+00 0.000000e+00 0.000000e+00 0.000000e+00 0.000000e+00 0.000000e+00 0.000000e+00 0.000000e+00 0.000000e+00 0.000000e+00 0.000000e+00 0.000000e+00 
    70.5                0.000000e+00 0.000000e+00 0.000000e+00 0.000000e+00 0.000000e+00 0.000000e+00 0.000000e+00 0.000000e+00 0.000000e+00 0.000000e+00 0.000000e+00 0.000000e+00 
    71.5                0.000000e+00 0.000000e+00 0.000000e+00 0.000000e+00 0.000000e+00 0.000000e+00 0.000000e+00 0.000000e+00 0.000000e+00 0.000000e+00 0.000000e+00 0.000000e+00 
    72.5                0.000000e+00 0.000000e+00 0.000000e+00 0.000000e+00 0.000000e+00 0.000000e+00 0.000000e+00 0.000000e+00 0.000000e+00 0.000000e+00 0.000000e+00 0.000000e+00 
    73.5                0.000000e+00 0.000000e+00 0.000000e+00 0.000000e+00 0.000000e+00 0.000000e+00 0.000000e+00 0.000000e+00 0.000000e+00 0.000000e+00 0.000000e+00 0.000000e+00 
    74.5                0.000000e+00 0.000000e+00 0.000000e+00 0.000000e+00 0.000000e+00 0.000000e+00 0.000000e+00 0.000000e+00 0.000000e+00 0.000000e+00 0.000000e+00 0.000000e+00 
    75.5                0.000000e+00 0.000000e+00 0.000000e+00 0.000000e+00 0.000000e+00 0.000000e+00 0.000000e+00 0.000000e+00 0.000000e+00 0.000000e+00 0.000000e+00 0.000000e+00 
    76.5                0.000000e+00 0.000000e+00 0.000000e+00 0.000000e+00 0.000000e+00 0.000000e+00 0.000000e+00 0.000000e+00 0.000000e+00 0.000000e+00 0.000000e+00 0.000000e+00 
    77.5                0.000000e+00 0.000000e+00 0.000000e+00 0.000000e+00 0.000000e+00 0.000000e+00 0.000000e+00 0.000000e+00 0.000000e+00 0.000000e+00 0.000000e+00 0.000000e+00 
    78.5                0.000000e+00 0.000000e+00 0.000000e+00 0.000000e+00 0.000000e+00 0.000000e+00 0.000000e+00 0.000000e+00 0.000000e+00 0.000000e+00 0.000000e+00 0.000000e+00 
    79.5                0.000000e+00 0.000000e+00 0.000000e+00 0.000000e+00 0.000000e+00 0.000000e+00 0.000000e+00 0.000000e+00 0.000000e+00 0.000000e+00 0.000000e+00 0.000000e+00 


