# 80 rows of flux data
# 12 columns of flux data
# 
# total cross-sectional flux  2.184531e+00 /m^2/yr
#
#                             +x ram      -x wake      +y port -y starboard    +z zenith     -z nadir        Earth          Sun     anti-Sun      rot (x)      rot (y)      rot (z) 
# average speed (km/s)         23.83        24.65        17.47        24.76        23.73        23.57        24.50        24.65        24.66        23.57        24.08        24.13 
# total flux (#/m2/yr)  6.215208e-01 7.285016e-01 1.244982e-01 9.227311e-01 8.981073e-01 7.942438e-04 1.237500e+00 9.475057e-01 9.603739e-01 1.461738e+00 1.790684e+00 1.892009e+00 
# velocity (km/s)
     0.5                0.000000e+00 0.000000e+00 0.000000e+00 0.000000e+00 0.000000e+00 0.000000e+00 0.000000e+00 0.000000e+00 0.000000e+00 0.000000e+00 0.000000e+00 0.000000e+00 
     1.5                0.000000e+00 0.000000e+00 0.000000e+00 0.000000e+00 0.000000e+00 0.000000e+00 0.000000e+00 0.000000e+00 0.000000e+00 0.000000e+00 0.000000e+00 0.000000e+00 
     2.5                5.471974e-06 0.000000e+00 9.707016e-07 8.687791e-07 2.338105e-06 1.434249e-09 1.859390e-06 2.935636e-07 1.594170e-06 3.266904e-06 6.125152e-06 5.910297e-06 
     3.5                1.290547e-04 3.495020e-06 2.566780e-05 6.187055e-05 8.677637e-05 6.399575e-08 9.565710e-05 2.730001e-05 5.623863e-05 1.330867e-04 1.735180e-04 1.739174e-04 
     4.5                5.707072e-04 1.337331e-04 1.414730e-04 3.878635e-04 4.890118e-04 3.948383e-07 5.690978e-04 1.922123e-04 2.934400e-04 7.866951e-04 9.437264e-04 9.711670e-04 
     5.5                1.521334e-03 6.133894e-04 4.965669e-04 1.311188e-03 1.629945e-03 1.314850e-06 1.904203e-03 7.780623e-04 9.719210e-04 2.680549e-03 2.972255e-03 3.097707e-03 
     6.5                2.840256e-03 2.012622e-03 1.154813e-03 2.933505e-03 3.613499e-03 3.180171e-06 4.239195e-03 1.970040e-03 2.216181e-03 6.058634e-03 6.694652e-03 7.031749e-03 
     7.5                5.010751e-03 3.706439e-03 2.151801e-03 5.143805e-03 6.486504e-03 5.863055e-06 7.467357e-03 3.813128e-03 4.023856e-03 1.085470e-02 1.202160e-02 1.258669e-02 
     8.5                7.457356e-03 6.207653e-03 3.263587e-03 8.358821e-03 1.027871e-02 9.189902e-06 1.203794e-02 6.420618e-03 6.501870e-03 1.724278e-02 1.892017e-02 1.986477e-02 
     9.5                9.462081e-03 9.457813e-03 4.529520e-03 1.165994e-02 1.432940e-02 1.286103e-05 1.676437e-02 9.531890e-03 9.528777e-03 2.404016e-02 2.628394e-02 2.758567e-02 
    10.5                1.147787e-02 1.273959e-02 6.125464e-03 1.426653e-02 1.812499e-02 1.696859e-05 2.070250e-02 1.296857e-02 1.304490e-02 3.044205e-02 3.348238e-02 3.506930e-02 
    11.5                1.316843e-02 1.495331e-02 7.388619e-03 1.663586e-02 2.148855e-02 1.942106e-05 2.422973e-02 1.633616e-02 1.652480e-02 3.591930e-02 3.921062e-02 4.099621e-02 
    12.5                1.442432e-02 1.711006e-02 8.108123e-03 1.853671e-02 2.393268e-02 2.118124e-05 2.690744e-02 1.937327e-02 1.958705e-02 3.975658e-02 4.384148e-02 4.573165e-02 
    13.5                1.638909e-02 1.839401e-02 8.482820e-03 2.068324e-02 2.614621e-02 2.315354e-05 2.976468e-02 2.233369e-02 2.254974e-02 4.331058e-02 4.819816e-02 5.026728e-02 
    14.5                1.810528e-02 2.006963e-02 8.443733e-03 2.343484e-02 2.838255e-02 2.507519e-05 3.327175e-02 2.545412e-02 2.570985e-02 4.697683e-02 5.271322e-02 5.509126e-02 
    15.5                1.967078e-02 2.181489e-02 8.052502e-03 2.615552e-02 3.021379e-02 2.689586e-05 3.661482e-02 2.842921e-02 2.871660e-02 4.996327e-02 5.686454e-02 5.956254e-02 
    16.5                2.108302e-02 2.368789e-02 7.781681e-03 2.862373e-02 3.195496e-02 2.872364e-05 3.972399e-02 3.123441e-02 3.154165e-02 5.280990e-02 6.091463e-02 6.391388e-02 
    17.5                2.245042e-02 2.503444e-02 7.254974e-03 3.086650e-02 3.322907e-02 3.015620e-05 4.242124e-02 3.373534e-02 3.406287e-02 5.487436e-02 6.412918e-02 6.742597e-02 
    18.5                2.343817e-02 2.627138e-02 6.545397e-03 3.301076e-02 3.425491e-02 3.099343e-05 4.494564e-02 3.593487e-02 3.628432e-02 5.650851e-02 6.677114e-02 7.033654e-02 
    19.5                2.417788e-02 2.746178e-02 6.052787e-03 3.460490e-02 3.504320e-02 3.194778e-05 4.682617e-02 3.770296e-02 3.807310e-02 5.775046e-02 6.899253e-02 7.276113e-02 
    20.5                2.484961e-02 2.807451e-02 5.465385e-03 3.582163e-02 3.543857e-02 3.229651e-05 4.818023e-02 3.891486e-02 3.931135e-02 5.827924e-02 7.037359e-02 7.429667e-02 
    21.5                2.586300e-02 2.853188e-02 4.881394e-03 3.722576e-02 3.599064e-02 3.268241e-05 4.981424e-02 4.022952e-02 4.066166e-02 5.907802e-02 7.200900e-02 7.611957e-02 
    22.5                2.649403e-02 2.943899e-02 4.462767e-03 3.875381e-02 3.683329e-02 3.317414e-05 5.162832e-02 4.159886e-02 4.206831e-02 6.031948e-02 7.394531e-02 7.823523e-02 
    23.5                2.673601e-02 3.021240e-02 3.906040e-03 3.971204e-02 3.705068e-02 3.332579e-05 5.267765e-02 4.236664e-02 4.286796e-02 6.055184e-02 7.496061e-02 7.937217e-02 
    24.5                2.686197e-02 3.037140e-02 3.427546e-03 4.016524e-02 3.694653e-02 3.304587e-05 5.310038e-02 4.256946e-02 4.310351e-02 6.021751e-02 7.513256e-02 7.959961e-02 
    25.5                2.673610e-02 3.041705e-02 2.941638e-03 4.042139e-02 3.667103e-02 3.253296e-05 5.327004e-02 4.247673e-02 4.303936e-02 5.958574e-02 7.487317e-02 7.937962e-02 
    26.5                2.605887e-02 3.027643e-02 2.521153e-03 4.008258e-02 3.597503e-02 3.165057e-05 5.268679e-02 4.181380e-02 4.239001e-02 5.826643e-02 7.368451e-02 7.815528e-02 
    27.5                2.539114e-02 2.964574e-02 2.139301e-03 3.919899e-02 3.486171e-02 3.065717e-05 5.141581e-02 4.068291e-02 4.126246e-02 5.630238e-02 7.179125e-02 7.615943e-02 
    28.5                2.453205e-02 2.868421e-02 1.819704e-03 3.816138e-02 3.368623e-02 2.927440e-05 4.996711e-02 3.926409e-02 3.984386e-02 5.423725e-02 6.940081e-02 7.365869e-02 
    29.5                2.338848e-02 2.778812e-02 1.510516e-03 3.679732e-02 3.224657e-02 2.789775e-05 4.810462e-02 3.759718e-02 3.817118e-02 5.177824e-02 6.663870e-02 7.074363e-02 
    30.5                2.211481e-02 2.650786e-02 1.249292e-03 3.505213e-02 3.053991e-02 2.626010e-05 4.576593e-02 3.555625e-02 3.611343e-02 4.889107e-02 6.324621e-02 6.715727e-02 
    31.5                2.062611e-02 2.509235e-02 1.001361e-03 3.305669e-02 2.863109e-02 2.453656e-05 4.310660e-02 3.325163e-02 3.378613e-02 4.570404e-02 5.941202e-02 6.310489e-02 
    32.5                1.891215e-02 2.346480e-02 8.010839e-04 3.072384e-02 2.648985e-02 2.257479e-05 4.002993e-02 3.062861e-02 3.113193e-02 4.216885e-02 5.503593e-02 5.847206e-02 
    33.5                1.698671e-02 2.165543e-02 6.353872e-04 2.803317e-02 2.408019e-02 2.052326e-05 3.649992e-02 2.771645e-02 2.817861e-02 3.824557e-02 5.013387e-02 5.327107e-02 
    34.5                1.506143e-02 1.955318e-02 4.985857e-04 2.512663e-02 2.151843e-02 1.832162e-05 3.269992e-02 2.463722e-02 2.505325e-02 3.410341e-02 4.487317e-02 4.768713e-02 
    35.5                1.314482e-02 1.741720e-02 3.806366e-04 2.218841e-02 1.894873e-02 1.611660e-05 2.886311e-02 2.157076e-02 2.194052e-02 2.996422e-02 3.958472e-02 4.207060e-02 
    36.5                1.128564e-02 1.525537e-02 2.790069e-04 1.929907e-02 1.643420e-02 1.393701e-05 2.509587e-02 1.857384e-02 1.889445e-02 2.593127e-02 3.436107e-02 3.652594e-02 
    37.5                9.483266e-03 1.318781e-02 2.016030e-04 1.648655e-02 1.400708e-02 1.188251e-05 2.143307e-02 1.571139e-02 1.598627e-02 2.205692e-02 2.932857e-02 3.117901e-02 
    38.5                7.709529e-03 1.115982e-02 1.401500e-04 1.374367e-02 1.165248e-02 9.864394e-06 1.786427e-02 1.295785e-02 1.318445e-02 1.831550e-02 2.440742e-02 2.595191e-02 
    39.5                5.993399e-03 9.218538e-03 9.423923e-05 1.106341e-02 9.364054e-03 7.946627e-06 1.437983e-02 1.032861e-02 1.050728e-02 1.469485e-02 1.965533e-02 2.089879e-02 
    40.5                4.430383e-03 7.305392e-03 6.050237e-05 8.510801e-03 7.193786e-03 6.141551e-06 1.106259e-02 7.870513e-03 8.005115e-03 1.127224e-02 1.514357e-02 1.609986e-02 
    41.5                3.125738e-03 5.525507e-03 3.698850e-05 6.235725e-03 5.264959e-03 4.543399e-06 8.106190e-03 5.721894e-03 5.816819e-03 8.239021e-03 1.113712e-02 1.183680e-02 
    42.5                2.086681e-03 3.968666e-03 2.149973e-05 4.355069e-03 3.673825e-03 3.186234e-06 5.662475e-03 3.956311e-03 4.020641e-03 5.742367e-03 7.787901e-03 8.276536e-03 
    43.5                1.249988e-03 2.729404e-03 1.175472e-05 2.850338e-03 2.402848e-03 2.098390e-06 3.706989e-03 2.565646e-03 2.605611e-03 3.752084e-03 5.110235e-03 5.429728e-03 
    44.5                6.504445e-04 1.732070e-03 6.018225e-06 1.675576e-03 1.411941e-03 1.277663e-06 2.179972e-03 1.506458e-03 1.527477e-03 2.203113e-03 3.041129e-03 3.227857e-03 
    45.5                2.699544e-04 9.664677e-04 2.701055e-06 8.481623e-04 7.145079e-04 6.747623e-07 1.103997e-03 7.650061e-04 7.738256e-04 1.114225e-03 1.565601e-03 1.659331e-03 
    46.5                7.925522e-05 4.510528e-04 1.049306e-06 3.424468e-04 2.884802e-04 3.022693e-07 4.459943e-04 3.163349e-04 3.190096e-04 4.497257e-04 6.591412e-04 6.961713e-04 
    47.5                1.552428e-05 1.551348e-04 3.270828e-07 1.004748e-04 8.465429e-05 1.041380e-07 1.309412e-04 9.724100e-05 9.736599e-05 1.319727e-04 2.066935e-04 2.171902e-04 
    48.5                1.405291e-06 3.736910e-05 7.024390e-08 2.018278e-05 1.700863e-05 2.477365e-08 2.632515e-05 2.087589e-05 2.074851e-05 2.651721e-05 4.542878e-05 4.742128e-05 
    49.5                1.245252e-08 5.184287e-06 9.902222e-09 2.153943e-06 1.816750e-06 3.658047e-09 2.814969e-06 2.566933e-06 2.524756e-06 2.834602e-06 5.766255e-06 5.951256e-06 
    50.5                0.000000e+00 1.497734e-07 3.345355e-10 4.034590e-08 3.407865e-08 1.308216e-10 5.308391e-08 6.658358e-08 6.387188e-08 5.335929e-08 1.557761e-07 1.580782e-07 
    51.5                0.000000e+00 0.000000e+00 0.000000e+00 0.000000e+00 0.000000e+00 0.000000e+00 0.000000e+00 0.000000e+00 0.000000e+00 0.000000e+00 0.000000e+00 0.000000e+00 
    52.5                0.000000e+00 0.000000e+00 0.000000e+00 0.000000e+00 0.000000e+00 0.000000e+00 0.000000e+00 0.000000e+00 0.000000e+00 0.000000e+00 0.000000e+00 0.000000e+00 
    53.5                0.000000e+00 0.000000e+00 0.000000e+00 0.000000e+00 0.000000e+00 0.000000e+00 0.000000e+00 0.000000e+00 0.000000e+00 0.000000e+00 0.000000e+00 0.000000e+00 
    54.5                0.000000e+00 0.000000e+00 0.000000e+00 0.000000e+00 0.000000e+00 0.000000e+00 0.000000e+00 0.000000e+00 0.000000e+00 0.000000e+00 0.000000e+00 0.000000e+00 
    55.5                0.000000e+00 0.000000e+00 0.000000e+00 0.000000e+00 0.000000e+00 0.000000e+00 0.000000e+00 0.000000e+00 0.000000e+00 0.000000e+00 0.000000e+00 0.000000e+00 
    56.5                0.000000e+00 0.000000e+00 0.000000e+00 0.000000e+00 0.000000e+00 0.000000e+00 0.000000e+00 0.000000e+00 0.000000e+00 0.000000e+00 0.000000e+00 0.000000e+00 
    57.5                0.000000e+00 0.000000e+00 0.000000e+00 0.000000e+00 0.000000e+00 0.000000e+00 0.000000e+00 0.000000e+00 0.000000e+00 0.000000e+00 0.000000e+00 0.000000e+00 
    58.5                0.000000e+00 0.000000e+00 0.000000e+00 0.000000e+00 0.000000e+00 0.000000e+00 0.000000e+00 0.000000e+00 0.000000e+00 0.000000e+00 0.000000e+00 0.000000e+00 
    59.5                0.000000e+00 0.000000e+00 0.000000e+00 0.000000e+00 0.000000e+00 0.000000e+00 0.000000e+00 0.000000e+00 0.000000e+00 0.000000e+00 0.000000e+00 0.000000e+00 
    60.5                0.000000e+00 0.000000e+00 0.000000e+00 0.000000e+00 0.000000e+00 0.000000e+00 0.000000e+00 0.000000e+00 0.000000e+00 0.000000e+00 0.000000e+00 0.000000e+00 
    61.5                0.000000e+00 0.000000e+00 0.000000e+00 0.000000e+00 0.000000e+00 0.000000e+00 0.000000e+00 0.000000e+00 0.000000e+00 0.000000e+00 0.000000e+00 0.000000e+00 
    62.5                0.000000e+00 0.000000e+00 0.000000e+00 0.000000e+00 0.000000e+00 0.000000e+00 0.000000e+00 0.000000e+00 0.000000e+00 0.000000e+00 0.000000e+00 0.000000e+00 
    63.5                0.000000e+00 0.000000e+00 0.000000e+00 0.000000e+00 0.000000e+00 0.000000e+00 0.000000e+00 0.000000e+00 0.000000e+00 0.000000e+00 0.000000e+00 0.000000e+00 
    64.5                0.000000e+00 0.000000e+00 0.000000e+00 0.000000e+00 0.000000e+00 0.000000e+00 0.000000e+00 0.000000e+00 0.000000e+00 0.000000e+00 0.000000e+00 0.000000e+00 
    65.5                0.000000e+00 0.000000e+00 0.000000e+00 0.000000e+00 0.000000e+00 0.000000e+00 0.000000e+00 0.000000e+00 0.000000e+00 0.000000e+00 0.000000e+00 0.000000e+00 
    66.5                0.000000e+00 0.000000e+00 0.000000e+00 0.000000e+00 0.000000e+00 0.000000e+00 0.000000e+00 0.000000e+00 0.000000e+00 0.000000e+00 0.000000e+00 0.000000e+00 
    67.5                0.000000e+00 0.000000e+00 0.000000e+00 0.000000e+00 0.000000e+00 0.000000e+00 0.000000e+00 0.000000e+00 0.000000e+00 0.000000e+00 0.000000e+00 0.000000e+00 
    68.5                0.000000e+00 0.000000e+00 0.000000e+00 0.000000e+00 0.000000e+00 0.000000e+00 0.000000e+00 0.000000e+00 0.000000e+00 0.000000e+00 0.000000e+00 0.000000e+00 
    69.5                0.000000e+00 0.000000e+00 0.000000e+00 0.000000e+00 0.000000e+00 0.000000e+00 0.000000e+00 0.000000e+00 0.000000e+00 0.000000e+00 0.000000e+00 0.000000e+00 
    70.5                0.000000e+00 0.000000e+00 0.000000e+00 0.000000e+00 0.000000e+00 0.000000e+00 0.000000e+00 0.000000e+00 0.000000e+00 0.000000e+00 0.000000e+00 0.000000e+00 
    71.5                0.000000e+00 0.000000e+00 0.000000e+00 0.000000e+00 0.000000e+00 0.000000e+00 0.000000e+00 0.000000e+00 0.000000e+00 0.000000e+00 0.000000e+00 0.000000e+00 
    72.5                0.000000e+00 0.000000e+00 0.000000e+00 0.000000e+00 0.000000e+00 0.000000e+00 0.000000e+00 0.000000e+00 0.000000e+00 0.000000e+00 0.000000e+00 0.000000e+00 
    73.5                0.000000e+00 0.000000e+00 0.000000e+00 0.000000e+00 0.000000e+00 0.000000e+00 0.000000e+00 0.000000e+00 0.000000e+00 0.000000e+00 0.000000e+00 0.000000e+00 
    74.5                0.000000e+00 0.000000e+00 0.000000e+00 0.000000e+00 0.000000e+00 0.000000e+00 0.000000e+00 0.000000e+00 0.000000e+00 0.000000e+00 0.000000e+00 0.000000e+00 
    75.5                0.000000e+00 0.000000e+00 0.000000e+00 0.000000e+00 0.000000e+00 0.000000e+00 0.000000e+00 0.000000e+00 0.000000e+00 0.000000e+00 0.000000e+00 0.000000e+00 
    76.5                0.000000e+00 0.000000e+00 0.000000e+00 0.000000e+00 0.000000e+00 0.000000e+00 0.000000e+00 0.000000e+00 0.000000e+00 0.000000e+00 0.000000e+00 0.000000e+00 
    77.5                0.000000e+00 0.000000e+00 0.000000e+00 0.000000e+00 0.000000e+00 0.000000e+00 0.000000e+00 0.000000e+00 0.000000e+00 0.000000e+00 0.000000e+00 0.000000e+00 
    78.5                0.000000e+00 0.000000e+00 0.000000e+00 0.000000e+00 0.000000e+00 0.000000e+00 0.000000e+00 0.000000e+00 0.000000e+00 0.000000e+00 0.000000e+00 0.000000e+00 
    79.5                0.000000e+00 0.000000e+00 0.000000e+00 0.000000e+00 0.000000e+00 0.000000e+00 0.000000e+00 0.000000e+00 0.000000e+00 0.000000e+00 0.000000e+00 0.000000e+00 


