# 80 rows of flux data
# 12 columns of flux data
# 
# total cross-sectional flux  1.040609e+00 /m^2/yr
#
#                             +x ram      -x wake      +y port -y starboard    +z zenith     -z nadir        Earth          Sun     anti-Sun      rot (x)      rot (y)      rot (z) 
# average speed (km/s)         38.36        37.07        33.02        42.58        31.87        46.03        38.99        27.93        28.12        34.02        34.36        36.98 
# total flux (#/m2/yr)  2.157578e-01 2.568250e-01 3.243378e-01 1.721313e-01 5.925380e-01 2.496868e-04 2.923832e-01 1.674342e-01 1.689212e-01 8.620454e-01 8.316727e-01 7.600876e-01 
# velocity (km/s)
     0.5                0.000000e+00 0.000000e+00 0.000000e+00 0.000000e+00 0.000000e+00 0.000000e+00 0.000000e+00 0.000000e+00 0.000000e+00 0.000000e+00 0.000000e+00 0.000000e+00 
     1.5                0.000000e+00 0.000000e+00 0.000000e+00 0.000000e+00 0.000000e+00 0.000000e+00 0.000000e+00 0.000000e+00 0.000000e+00 0.000000e+00 0.000000e+00 0.000000e+00 
     2.5                1.187952e-04 3.212178e-05 8.759007e-05 8.660856e-05 1.550374e-04 6.783368e-08 1.193293e-04 8.297190e-05 8.340721e-05 2.585784e-04 2.412424e-04 2.556489e-04 
     3.5                4.741798e-04 3.654812e-04 4.107984e-04 4.662112e-04 7.596464e-04 4.576753e-07 6.309739e-04 4.334316e-04 4.500083e-04 1.290065e-03 1.259084e-03 1.348949e-03 
     4.5                8.444727e-04 9.603379e-04 8.683758e-04 9.434859e-04 1.649340e-03 1.093099e-06 1.299079e-03 9.637123e-04 9.839369e-04 2.731940e-03 2.719671e-03 2.842156e-03 
     5.5                1.252333e-03 1.612220e-03 1.429602e-03 1.400175e-03 2.741388e-03 1.703571e-06 1.985703e-03 1.592920e-03 1.610596e-03 4.399479e-03 4.404181e-03 4.473705e-03 
     6.5                1.621777e-03 2.275754e-03 2.111309e-03 1.797307e-03 4.056669e-03 2.267701e-06 2.635713e-03 2.235112e-03 2.243273e-03 6.288540e-03 6.250019e-03 6.131307e-03 
     7.5                1.985967e-03 2.839724e-03 2.829821e-03 2.093318e-03 5.447604e-03 2.659100e-06 3.193026e-03 2.825246e-03 2.822963e-03 8.188615e-03 8.078221e-03 7.655926e-03 
     8.5                2.322157e-03 3.348011e-03 3.522401e-03 2.326433e-03 6.814475e-03 2.917757e-06 3.670131e-03 3.361514e-03 3.354231e-03 9.987079e-03 9.816293e-03 9.042126e-03 
     9.5                2.577062e-03 3.764658e-03 4.183794e-03 2.493228e-03 8.123489e-03 3.138814e-06 4.066625e-03 3.834380e-03 3.830931e-03 1.167035e-02 1.138649e-02 1.021821e-02 
    10.5                2.878357e-03 4.096954e-03 4.842420e-03 2.593616e-03 9.406325e-03 3.272841e-06 4.383168e-03 4.280941e-03 4.284892e-03 1.327579e-02 1.290615e-02 1.131129e-02 
    11.5                3.102927e-03 4.462837e-03 5.593320e-03 2.679371e-03 1.091598e-02 3.331122e-06 4.700181e-03 4.735329e-03 4.743420e-03 1.511101e-02 1.458764e-02 1.242854e-02 
    12.5                3.276662e-03 4.726778e-03 6.160161e-03 2.679286e-03 1.205641e-02 3.295403e-06 4.897786e-03 5.052869e-03 5.062842e-03 1.645432e-02 1.583812e-02 1.321735e-02 
    13.5                3.312160e-03 4.888383e-03 6.617162e-03 2.629740e-03 1.305137e-02 3.198421e-06 4.958278e-03 5.185783e-03 5.197409e-03 1.753997e-02 1.682908e-02 1.369840e-02 
    14.5                3.434770e-03 4.794835e-03 6.879704e-03 2.569568e-03 1.359793e-02 3.146055e-06 4.955536e-03 5.239550e-03 5.254409e-03 1.811745e-02 1.732024e-02 1.387773e-02 
    15.5                3.495057e-03 4.948899e-03 7.384115e-03 2.491489e-03 1.465156e-02 2.996524e-06 5.026896e-03 5.351248e-03 5.364807e-03 1.927394e-02 1.835523e-02 1.438086e-02 
    16.5                3.545723e-03 4.905067e-03 7.523383e-03 2.430520e-03 1.491620e-02 2.960469e-06 4.989165e-03 5.369580e-03 5.382462e-03 1.953864e-02 1.857469e-02 1.444437e-02 
    17.5                3.556264e-03 4.919462e-03 7.723107e-03 2.351228e-03 1.532834e-02 2.786611e-06 4.970065e-03 5.332717e-03 5.346013e-03 1.995259e-02 1.893113e-02 1.456295e-02 
    18.5                3.616120e-03 4.885688e-03 7.935339e-03 2.254505e-03 1.576648e-02 2.630157e-06 4.937843e-03 5.291861e-03 5.305007e-03 2.038469e-02 1.930584e-02 1.467300e-02 
    19.5                3.598358e-03 4.843298e-03 8.008653e-03 2.165305e-03 1.586496e-02 2.501333e-06 4.887505e-03 5.178963e-03 5.192049e-03 2.046112e-02 1.930785e-02 1.460423e-02 
    20.5                3.544631e-03 4.768067e-03 7.906638e-03 2.029688e-03 1.566474e-02 2.392219e-06 4.731620e-03 4.993364e-03 5.005972e-03 2.012673e-02 1.901782e-02 1.431571e-02 
    21.5                3.592182e-03 4.618453e-03 7.966588e-03 1.952631e-03 1.576081e-02 2.251157e-06 4.663464e-03 4.853133e-03 4.864960e-03 2.018231e-02 1.900805e-02 1.422356e-02 
    22.5                3.517166e-03 4.682461e-03 8.089652e-03 1.869949e-03 1.599739e-02 2.111914e-06 4.637918e-03 4.730913e-03 4.741624e-03 2.040776e-02 1.918042e-02 1.424935e-02 
    23.5                3.374811e-03 4.461942e-03 7.664680e-03 1.726448e-03 1.514234e-02 1.902178e-06 4.360865e-03 4.428548e-03 4.438553e-03 1.929144e-02 1.816761e-02 1.350503e-02 
    24.5                3.292631e-03 4.205679e-03 7.361578e-03 1.615301e-03 1.451116e-02 1.750968e-06 4.171506e-03 4.163889e-03 4.173271e-03 1.847940e-02 1.736885e-02 1.291193e-02 
    25.5                3.206069e-03 4.110965e-03 7.190476e-03 1.516820e-03 1.417046e-02 1.608289e-06 4.031885e-03 3.936840e-03 3.945548e-03 1.801021e-02 1.692677e-02 1.255254e-02 
    26.5                3.178970e-03 3.937353e-03 6.954720e-03 1.460642e-03 1.364485e-02 1.530761e-06 3.924536e-03 3.729601e-03 3.738032e-03 1.737976e-02 1.631162e-02 1.216304e-02 
    27.5                3.051326e-03 3.872286e-03 6.708365e-03 1.374590e-03 1.309341e-02 1.424708e-06 3.785823e-03 3.523841e-03 3.531342e-03 1.669785e-02 1.566937e-02 1.174737e-02 
    28.5                2.982623e-03 3.694628e-03 6.440291e-03 1.277702e-03 1.251599e-02 1.269555e-06 3.610917e-03 3.261853e-03 3.268992e-03 1.595919e-02 1.498257e-02 1.126897e-02 
    29.5                2.766679e-03 3.554127e-03 6.114902e-03 1.174300e-03 1.184195e-02 1.085085e-06 3.399536e-03 2.954932e-03 2.960844e-03 1.508875e-02 1.415157e-02 1.065156e-02 
    30.5                2.693872e-03 3.290848e-03 5.834177e-03 1.057442e-03 1.127803e-02 9.429256e-07 3.175842e-03 2.736477e-03 2.741157e-03 1.432971e-02 1.343601e-02 1.007222e-02 
    31.5                2.684260e-03 3.179501e-03 5.683213e-03 9.998059e-04 1.092363e-02 8.064195e-07 3.101537e-03 2.570052e-03 2.574393e-03 1.389792e-02 1.302010e-02 9.818302e-03 
    32.5                2.577733e-03 3.092927e-03 5.377851e-03 9.727153e-04 1.025900e-02 7.386334e-07 2.979813e-03 2.358835e-03 2.362903e-03 1.311128e-02 1.229625e-02 9.406729e-03 
    33.5                2.634548e-03 3.002151e-03 5.246985e-03 9.696200e-04 9.910215e-03 7.056086e-07 2.953860e-03 2.179301e-03 2.183687e-03 1.273678e-02 1.195063e-02 9.276982e-03 
    34.5                2.636634e-03 3.055729e-03 5.313203e-03 9.442823e-04 9.966867e-03 6.242181e-07 2.965676e-03 2.093294e-03 2.096294e-03 1.281820e-02 1.201696e-02 9.356645e-03 
    35.5                2.542951e-03 2.940479e-03 4.964868e-03 9.366335e-04 9.174254e-03 5.323383e-07 2.835887e-03 1.955030e-03 1.957682e-03 1.190749e-02 1.118990e-02 8.913479e-03 
    36.5                2.596051e-03 2.846961e-03 4.894550e-03 9.520240e-04 8.943682e-03 6.191922e-07 2.829283e-03 1.826673e-03 1.829654e-03 1.168431e-02 1.096092e-02 8.845239e-03 
    37.5                2.673042e-03 2.966984e-03 4.987535e-03 9.719614e-04 9.030844e-03 5.872057e-07 2.884048e-03 1.770224e-03 1.772452e-03 1.184244e-02 1.115980e-02 9.090371e-03 
    38.5                2.870281e-03 2.883278e-03 4.975596e-03 1.053303e-03 8.821986e-03 6.102087e-07 2.955652e-03 1.697851e-03 1.700797e-03 1.173051e-02 1.104908e-02 9.230665e-03 
    39.5                2.763146e-03 3.110803e-03 5.018013e-03 1.131415e-03 8.748326e-03 6.933644e-07 3.050051e-03 1.647123e-03 1.649854e-03 1.176794e-02 1.106916e-02 9.424597e-03 
    40.5                2.849475e-03 3.054200e-03 4.951380e-03 1.114753e-03 8.576051e-03 6.300677e-07 3.010063e-03 1.580026e-03 1.582398e-03 1.156453e-02 1.094502e-02 9.389421e-03 
    41.5                3.152484e-03 3.089683e-03 5.053803e-03 1.305525e-03 8.616609e-03 7.501196e-07 3.242205e-03 1.560607e-03 1.565469e-03 1.182406e-02 1.120600e-02 9.881678e-03 
    42.5                3.060938e-03 3.368480e-03 5.042443e-03 1.477875e-03 8.405017e-03 8.858572e-07 3.403741e-03 1.553003e-03 1.559262e-03 1.178283e-02 1.117949e-02 1.016127e-02 
    43.5                3.237808e-03 3.276973e-03 4.885199e-03 1.530183e-03 8.014876e-03 9.544408e-07 3.385283e-03 1.505632e-03 1.512521e-03 1.139486e-02 1.094011e-02 1.014400e-02 
    44.5                3.560152e-03 3.436609e-03 5.236279e-03 1.752987e-03 8.340784e-03 1.384083e-06 3.715655e-03 1.556993e-03 1.564185e-03 1.212082e-02 1.155388e-02 1.098128e-02 
    45.5                3.546091e-03 3.786982e-03 5.367687e-03 1.831398e-03 8.363830e-03 1.435067e-06 3.822773e-03 1.561487e-03 1.567831e-03 1.230786e-02 1.182429e-02 1.140781e-02 
    46.5                3.641007e-03 3.703668e-03 5.268552e-03 1.945822e-03 8.158413e-03 1.429889e-06 3.905974e-03 1.523290e-03 1.531725e-03 1.215424e-02 1.169007e-02 1.143084e-02 
    47.5                3.899385e-03 3.858105e-03 5.235324e-03 2.289599e-03 8.137549e-03 2.165953e-06 4.252352e-03 1.545636e-03 1.560614e-03 1.239794e-02 1.202001e-02 1.200051e-02 
    48.5                4.291664e-03 3.972621e-03 5.361004e-03 2.759557e-03 8.124935e-03 3.797386e-06 4.732533e-03 1.598069e-03 1.619101e-03 1.290543e-02 1.244404e-02 1.286775e-02 
    49.5                4.725748e-03 4.417449e-03 5.655172e-03 3.203301e-03 8.400866e-03 5.370118e-06 5.260953e-03 1.666267e-03 1.691433e-03 1.374953e-02 1.337686e-02 1.413986e-02 
    50.5                5.463354e-03 4.717591e-03 5.960725e-03 3.965774e-03 8.745712e-03 7.702531e-06 6.122499e-03 1.758972e-03 1.794569e-03 1.492471e-02 1.451674e-02 1.579843e-02 
    51.5                6.056470e-03 5.422911e-03 6.086573e-03 5.196084e-03 9.159012e-03 9.933135e-06 7.455403e-03 1.843403e-03 1.900396e-03 1.636786e-02 1.593480e-02 1.787757e-02 
    52.5                6.082302e-03 6.149511e-03 5.885058e-03 5.991631e-03 9.104008e-03 1.109615e-05 8.239270e-03 1.890326e-03 1.961600e-03 1.680858e-02 1.656952e-02 1.891891e-02 
    53.5                6.181675e-03 6.281747e-03 5.551087e-03 6.413556e-03 8.816658e-03 1.112980e-05 8.594700e-03 1.907270e-03 1.987039e-03 1.663965e-02 1.659599e-02 1.916444e-02 
    54.5                5.824561e-03 6.415879e-03 5.255298e-03 6.552658e-03 8.417246e-03 1.123637e-05 8.639543e-03 1.892905e-03 1.974524e-03 1.619826e-02 1.615268e-02 1.887197e-02 
    55.5                5.881945e-03 6.352818e-03 5.006844e-03 6.527022e-03 8.070032e-03 1.129669e-05 8.528286e-03 1.868862e-03 1.949484e-03 1.570452e-02 1.591375e-02 1.864354e-02 
    56.5                5.609743e-03 6.225706e-03 4.811967e-03 6.515914e-03 7.712407e-03 1.144318e-05 8.436651e-03 1.830411e-03 1.909671e-03 1.526477e-02 1.535321e-02 1.817442e-02 
    57.5                5.136239e-03 5.992888e-03 4.378197e-03 6.218655e-03 7.037129e-03 1.135547e-05 7.968889e-03 1.741978e-03 1.816546e-03 1.415425e-02 1.430584e-02 1.705717e-02 
    58.5                4.941746e-03 5.528735e-03 3.916719e-03 6.056305e-03 6.405144e-03 1.138611e-05 7.642460e-03 1.614236e-03 1.687392e-03 1.316641e-02 1.332935e-02 1.604129e-02 
    59.5                4.727112e-03 5.241569e-03 3.588144e-03 5.922445e-03 5.935347e-03 1.126729e-05 7.393066e-03 1.481511e-03 1.553385e-03 1.242982e-02 1.260563e-02 1.527646e-02 
    60.5                4.303081e-03 5.061243e-03 3.147519e-03 5.698988e-03 5.431533e-03 1.021164e-05 7.040676e-03 1.321494e-03 1.391565e-03 1.147901e-02 1.175174e-02 1.427936e-02 
    61.5                3.768162e-03 4.592517e-03 2.630585e-03 5.378381e-03 4.730184e-03 9.612662e-06 6.539486e-03 1.156374e-03 1.223390e-03 1.024674e-02 1.044117e-02 1.284075e-02 
    62.5                3.084935e-03 4.249353e-03 2.103219e-03 4.730540e-03 3.970703e-03 8.253710e-06 5.699264e-03 9.868307e-04 1.045866e-03 8.684524e-03 9.040300e-03 1.110120e-02 
    63.5                2.522589e-03 3.482587e-03 1.639038e-03 3.963136e-03 3.167478e-03 7.073575e-06 4.734066e-03 8.127806e-04 8.622450e-04 7.054869e-03 7.364294e-03 9.096575e-03 
    64.5                2.025393e-03 2.869921e-03 1.270834e-03 3.283903e-03 2.528438e-03 5.977772e-06 3.895278e-03 6.440731e-04 6.847100e-04 5.701324e-03 5.972262e-03 7.406724e-03 
    65.5                1.549749e-03 2.285205e-03 9.171181e-04 2.676662e-03 1.943640e-03 4.808150e-06 3.142607e-03 4.847679e-04 5.181302e-04 4.455680e-03 4.661940e-03 5.822114e-03 
    66.5                1.106318e-03 1.836606e-03 6.282722e-04 2.093532e-03 1.445059e-03 3.641144e-06 2.437250e-03 3.458608e-04 3.721523e-04 3.348589e-03 3.550714e-03 4.436201e-03 
    67.5                7.102098e-04 1.348102e-03 3.726074e-04 1.490021e-03 9.775332e-04 2.385125e-06 1.720876e-03 2.232026e-04 2.421448e-04 2.274909e-03 2.464438e-03 3.069586e-03 
    68.5                3.985153e-04 9.074563e-04 1.939979e-04 9.669323e-04 6.022197e-04 1.352331e-06 1.108292e-03 1.270857e-04 1.394975e-04 1.404673e-03 1.553115e-03 1.931082e-03 
    69.5                1.756029e-04 5.544867e-04 8.980663e-05 5.380828e-04 3.220498e-04 6.981776e-07 6.137582e-04 6.127539e-05 6.817640e-05 7.525555e-04 8.584104e-04 1.062713e-03 
    70.5                4.465867e-05 2.780605e-04 3.260443e-05 2.303955e-04 1.334540e-04 2.940810e-07 2.617842e-04 2.303824e-05 2.595436e-05 3.121145e-04 3.740004e-04 4.593530e-04 
    71.5                5.842508e-06 1.002370e-04 8.720498e-06 6.194807e-05 3.587488e-05 9.788177e-08 7.052337e-05 5.807972e-06 6.570783e-06 8.352724e-05 1.179395e-04 1.390619e-04 
    72.5                1.278504e-07 1.758185e-05 1.050805e-06 8.620667e-06 4.828361e-06 1.765362e-08 9.817080e-06 8.193777e-07 9.229630e-07 1.128689e-05 1.907194e-05 2.175651e-05 
    73.5                0.000000e+00 1.360625e-06 3.338134e-08 4.287580e-07 2.198360e-07 1.740572e-09 4.889459e-07 3.415185e-08 3.927465e-08 5.266413e-07 1.392710e-06 1.481394e-06 
    74.5                0.000000e+00 0.000000e+00 0.000000e+00 0.000000e+00 0.000000e+00 0.000000e+00 0.000000e+00 0.000000e+00 0.000000e+00 0.000000e+00 0.000000e+00 0.000000e+00 
    75.5                0.000000e+00 0.000000e+00 0.000000e+00 0.000000e+00 0.000000e+00 0.000000e+00 0.000000e+00 0.000000e+00 0.000000e+00 0.000000e+00 0.000000e+00 0.000000e+00 
    76.5                0.000000e+00 0.000000e+00 0.000000e+00 0.000000e+00 0.000000e+00 0.000000e+00 0.000000e+00 0.000000e+00 0.000000e+00 0.000000e+00 0.000000e+00 0.000000e+00 
    77.5                0.000000e+00 0.000000e+00 0.000000e+00 0.000000e+00 0.000000e+00 0.000000e+00 0.000000e+00 0.000000e+00 0.000000e+00 0.000000e+00 0.000000e+00 0.000000e+00 
    78.5                0.000000e+00 0.000000e+00 0.000000e+00 0.000000e+00 0.000000e+00 0.000000e+00 0.000000e+00 0.000000e+00 0.000000e+00 0.000000e+00 0.000000e+00 0.000000e+00 
    79.5                0.000000e+00 0.000000e+00 0.000000e+00 0.000000e+00 0.000000e+00 0.000000e+00 0.000000e+00 0.000000e+00 0.000000e+00 0.000000e+00 0.000000e+00 0.000000e+00 


