# 80 rows of flux data
# 12 columns of flux data
# 
# total cross-sectional flux  2.153729e+00 /m^2/yr
#
#                             +x ram      -x wake      +y port -y starboard    +z zenith     -z nadir        Earth          Sun     anti-Sun      rot (x)      rot (y)      rot (z) 
# average speed (km/s)         24.67        23.83        19.19        21.36        24.27        23.68        23.53        24.68        24.68        23.64        24.27        23.70 
# total flux (#/m2/yr)  7.163848e-01 6.110974e-01 1.736937e-01 2.729299e-01 1.284215e+00 4.940366e-04 4.902566e-03 9.478047e-01 9.342876e-01 1.444842e+00 2.058916e+00 1.484258e+00 
# velocity (km/s)
     0.5                0.000000e+00 0.000000e+00 0.000000e+00 0.000000e+00 0.000000e+00 0.000000e+00 0.000000e+00 0.000000e+00 0.000000e+00 0.000000e+00 0.000000e+00 0.000000e+00 
     1.5                0.000000e+00 0.000000e+00 0.000000e+00 0.000000e+00 0.000000e+00 0.000000e+00 0.000000e+00 0.000000e+00 0.000000e+00 0.000000e+00 0.000000e+00 0.000000e+00 
     2.5                0.000000e+00 5.067185e-06 3.565835e-07 3.758002e-07 2.440278e-06 1.417517e-09 1.289271e-08 2.155724e-06 1.283663e-07 2.733500e-06 5.863863e-06 5.183947e-06 
     3.5                3.143732e-06 1.176679e-04 1.914927e-05 2.417530e-05 1.034745e-04 4.252366e-08 4.113938e-07 5.815406e-05 2.090529e-05 1.215384e-04 1.771046e-04 1.342398e-04 
     4.5                1.192272e-04 5.408997e-04 1.330861e-04 1.675827e-04 6.080663e-04 2.491009e-07 2.245153e-06 2.962400e-04 1.671193e-04 7.356086e-04 9.996671e-04 7.714946e-04 
     5.5                5.663589e-04 1.469598e-03 5.056787e-04 6.282691e-04 2.050435e-03 7.789035e-07 7.231434e-06 9.665787e-04 7.115898e-04 2.540066e-03 3.224630e-03 2.509274e-03 
     6.5                1.898428e-03 2.757900e-03 1.192065e-03 1.473741e-03 4.584627e-03 1.832896e-06 1.667639e-05 2.182931e-03 1.833664e-03 5.742013e-03 7.286456e-03 5.786313e-03 
     7.5                3.551485e-03 4.898045e-03 2.254411e-03 2.751637e-03 8.169670e-03 3.438968e-06 3.177384e-05 3.956750e-03 3.629071e-03 1.041248e-02 1.310345e-02 1.061510e-02 
     8.5                6.012705e-03 7.285424e-03 3.544658e-03 4.368395e-03 1.311547e-02 5.350856e-06 4.976562e-05 6.345763e-03 6.204349e-03 1.661553e-02 2.082357e-02 1.669327e-02 
     9.5                9.187083e-03 9.281484e-03 5.028669e-03 6.178720e-03 1.829988e-02 7.519620e-06 7.089354e-05 9.282831e-03 9.285391e-03 2.327887e-02 2.899190e-02 2.335147e-02 
    10.5                1.243081e-02 1.129194e-02 6.627801e-03 8.030290e-03 2.286954e-02 1.000288e-05 9.562839e-05 1.271642e-02 1.269414e-02 2.954293e-02 3.673899e-02 3.019843e-02 
    11.5                1.467639e-02 1.295765e-02 7.935960e-03 9.557545e-03 2.693161e-02 1.178533e-05 1.164270e-04 1.612714e-02 1.603454e-02 3.502687e-02 4.303063e-02 3.555342e-02 
    12.5                1.685295e-02 1.421881e-02 8.790137e-03 1.056029e-02 2.989442e-02 1.352438e-05 1.363274e-04 1.917270e-02 1.904584e-02 3.895828e-02 4.808224e-02 3.981229e-02 
    13.5                1.813148e-02 1.614266e-02 9.366161e-03 1.134057e-02 3.286661e-02 1.486184e-05 1.517315e-04 2.212398e-02 2.196014e-02 4.252596e-02 5.293598e-02 4.358785e-02 
    14.5                1.977837e-02 1.781293e-02 9.673343e-03 1.193003e-02 3.634280e-02 1.602906e-05 1.650547e-04 2.526036e-02 2.503840e-02 4.618996e-02 5.829771e-02 4.711957e-02 
    15.5                2.148501e-02 1.935352e-02 9.666502e-03 1.221487e-02 3.952714e-02 1.709491e-05 1.760826e-04 2.823970e-02 2.797181e-02 4.919273e-02 6.337445e-02 5.016961e-02 
    16.5                2.331111e-02 2.073562e-02 9.608159e-03 1.247549e-02 4.257587e-02 1.801139e-05 1.851665e-04 3.104722e-02 3.073012e-02 5.202382e-02 6.829295e-02 5.319187e-02 
    17.5                2.464010e-02 2.207112e-02 9.330381e-03 1.248104e-02 4.509221e-02 1.868078e-05 1.918774e-04 3.355722e-02 3.319679e-02 5.408931e-02 7.237980e-02 5.537647e-02 
    18.5                2.584355e-02 2.303964e-02 8.920665e-03 1.233941e-02 4.737738e-02 1.912212e-05 1.962117e-04 3.576642e-02 3.537723e-02 5.575837e-02 7.589376e-02 5.697989e-02 
    19.5                2.700428e-02 2.376330e-02 8.586914e-03 1.221508e-02 4.909072e-02 1.956363e-05 2.004408e-04 3.754758e-02 3.712993e-02 5.700770e-02 7.872597e-02 5.842787e-02 
    20.5                2.761133e-02 2.442390e-02 8.103059e-03 1.189346e-02 5.023827e-02 1.981880e-05 2.026552e-04 3.878519e-02 3.834096e-02 5.758167e-02 8.062955e-02 5.912072e-02 
    21.5                2.805914e-02 2.542452e-02 7.583451e-03 1.159310e-02 5.169908e-02 1.989308e-05 2.023928e-04 4.013908e-02 3.965217e-02 5.840324e-02 8.291914e-02 5.995007e-02 
    22.5                2.894544e-02 2.604397e-02 7.280204e-03 1.145262e-02 5.335390e-02 2.026468e-05 2.060490e-04 4.153854e-02 4.101345e-02 5.967991e-02 8.541005e-02 6.113555e-02 
    23.5                2.970791e-02 2.628012e-02 6.761748e-03 1.109921e-02 5.421337e-02 2.030372e-05 2.049157e-04 4.234166e-02 4.178696e-02 5.994636e-02 8.687004e-02 6.155226e-02 
    24.5                2.986886e-02 2.640971e-02 6.235051e-03 1.065796e-02 5.446834e-02 2.022819e-05 2.030580e-04 4.259044e-02 4.200828e-02 5.966010e-02 8.730143e-02 6.131730e-02 
    25.5                2.991548e-02 2.628775e-02 5.653852e-03 1.013192e-02 5.446469e-02 1.996997e-05 1.993669e-04 4.253859e-02 4.193261e-02 5.907452e-02 8.723785e-02 6.070215e-02 
    26.5                2.978043e-02 2.562407e-02 5.082691e-03 9.535946e-03 5.372156e-02 1.952663e-05 1.943203e-04 4.190738e-02 4.129408e-02 5.780941e-02 8.602384e-02 5.939689e-02 
    27.5                2.916447e-02 2.497267e-02 4.520863e-03 8.891371e-03 5.231286e-02 1.903028e-05 1.883063e-04 4.080314e-02 4.019248e-02 5.589884e-02 8.391305e-02 5.765674e-02 
    28.5                2.822381e-02 2.412910e-02 3.997697e-03 8.259530e-03 5.073825e-02 1.826615e-05 1.799920e-04 3.940876e-02 3.880224e-02 5.388143e-02 8.126236e-02 5.545223e-02 
    29.5                2.734352e-02 2.300701e-02 3.490577e-03 7.609593e-03 4.876041e-02 1.750118e-05 1.716754e-04 3.776190e-02 3.716448e-02 5.146880e-02 7.812215e-02 5.304948e-02 
    30.5                2.609035e-02 2.175735e-02 2.993968e-03 6.924215e-03 4.632069e-02 1.655998e-05 1.619531e-04 3.573404e-02 3.515855e-02 4.862828e-02 7.422831e-02 5.015881e-02 
    31.5                2.469850e-02 2.029533e-02 2.499560e-03 6.212246e-03 4.356195e-02 1.553453e-05 1.508095e-04 3.343546e-02 3.288594e-02 4.547960e-02 6.980526e-02 4.693743e-02 
    32.5                2.310076e-02 1.860894e-02 2.053648e-03 5.509207e-03 4.040292e-02 1.432568e-05 1.384992e-04 3.081173e-02 3.029819e-02 4.198101e-02 6.472620e-02 4.332748e-02 
    33.5                2.132070e-02 1.671383e-02 1.668066e-03 4.824697e-03 3.680108e-02 1.306098e-05 1.254219e-04 2.789021e-02 2.741917e-02 3.808699e-02 5.898920e-02 3.937473e-02 
    34.5                1.925613e-02 1.482013e-02 1.326792e-03 4.159122e-03 3.294341e-02 1.169749e-05 1.117884e-04 2.480076e-02 2.437795e-02 3.397616e-02 5.282834e-02 3.517273e-02 
    35.5                1.715392e-02 1.293403e-02 1.020086e-03 3.523542e-03 2.905290e-02 1.031862e-05 9.804614e-05 2.171966e-02 2.134569e-02 2.986145e-02 4.661855e-02 3.096241e-02 
    36.5                1.502752e-02 1.110480e-02 7.530319e-04 2.932831e-03 2.524029e-02 8.952071e-06 8.425954e-05 1.870704e-02 1.838214e-02 2.585193e-02 4.049372e-02 2.681386e-02 
    37.5                1.299001e-02 9.330879e-03 5.407009e-04 2.404450e-03 2.154064e-02 7.612331e-06 7.122628e-05 1.582575e-02 1.555118e-02 2.199595e-02 3.457173e-02 2.284606e-02 
    38.5                1.099440e-02 7.583809e-03 3.728715e-04 1.927563e-03 1.793954e-02 6.326328e-06 5.882077e-05 1.305190e-02 1.282617e-02 1.826849e-02 2.878456e-02 1.897500e-02 
    39.5                9.083743e-03 5.894865e-03 2.451397e-04 1.497495e-03 1.443202e-02 5.116529e-06 4.722046e-05 1.040282e-02 1.022442e-02 1.466180e-02 2.318161e-02 1.526861e-02 
    40.5                7.199583e-03 4.356626e-03 1.511852e-04 1.114934e-03 1.109570e-02 3.952529e-06 3.637956e-05 7.925030e-03 7.791677e-03 1.124901e-02 1.785539e-02 1.176050e-02 
    41.5                5.447296e-03 3.073430e-03 8.709455e-05 7.935512e-04 8.127151e-03 2.942205e-06 2.678508e-05 5.759850e-03 5.665159e-03 8.224767e-03 1.312301e-02 8.658614e-03 
    42.5                3.913263e-03 2.051443e-03 4.705329e-05 5.406555e-04 5.674735e-03 2.054523e-06 1.861984e-05 3.981366e-03 3.917751e-03 5.734048e-03 9.175535e-03 6.054538e-03 
    43.5                2.691227e-03 1.228379e-03 2.376906e-05 3.468206e-04 3.712701e-03 1.354958e-06 1.217084e-05 2.579586e-03 2.540720e-03 3.746781e-03 6.016890e-03 3.975166e-03 
    44.5                1.708661e-03 6.386869e-04 1.093237e-05 2.008870e-04 2.183288e-03 8.180253e-07 7.372724e-06 1.512388e-03 1.492366e-03 2.201283e-03 3.571692e-03 2.378184e-03 
    45.5                9.541377e-04 2.646453e-04 4.439671e-06 1.005676e-04 1.105241e-03 4.343761e-07 3.927670e-06 7.664197e-04 7.579263e-04 1.113566e-03 1.832189e-03 1.233573e-03 
    46.5                4.455616e-04 7.758640e-05 1.569635e-06 4.038162e-05 4.467415e-04 1.951594e-07 1.780272e-06 3.159623e-04 3.137416e-04 4.499489e-04 7.647834e-04 5.287250e-04 
    47.5                1.536631e-04 1.514360e-05 4.473773e-07 1.184334e-05 1.313936e-04 6.738852e-08 6.216073e-07 9.663401e-05 9.661141e-05 1.323340e-04 2.370189e-04 1.703054e-04 
    48.5                3.714091e-05 1.356193e-06 8.800067e-08 2.377954e-06 2.647353e-05 1.702961e-08 1.505380e-07 2.064710e-05 2.080130e-05 2.666474e-05 5.132526e-05 3.875400e-05 
    49.5                5.172084e-06 1.187190e-08 1.156214e-08 2.576460e-07 2.857487e-06 2.461020e-09 2.228440e-08 2.524479e-06 2.572853e-06 2.880224e-06 6.351163e-06 5.201903e-06 
    50.5                1.500757e-07 0.000000e+00 3.610755e-10 5.040821e-09 5.489642e-08 9.551231e-11 7.864701e-10 6.462066e-08 6.676758e-08 5.548796e-08 1.644510e-07 1.502313e-07 
    51.5                0.000000e+00 0.000000e+00 0.000000e+00 0.000000e+00 0.000000e+00 0.000000e+00 0.000000e+00 0.000000e+00 0.000000e+00 0.000000e+00 0.000000e+00 0.000000e+00 
    52.5                0.000000e+00 0.000000e+00 0.000000e+00 0.000000e+00 0.000000e+00 0.000000e+00 0.000000e+00 0.000000e+00 0.000000e+00 0.000000e+00 0.000000e+00 0.000000e+00 
    53.5                0.000000e+00 0.000000e+00 0.000000e+00 0.000000e+00 0.000000e+00 0.000000e+00 0.000000e+00 0.000000e+00 0.000000e+00 0.000000e+00 0.000000e+00 0.000000e+00 
    54.5                0.000000e+00 0.000000e+00 0.000000e+00 0.000000e+00 0.000000e+00 0.000000e+00 0.000000e+00 0.000000e+00 0.000000e+00 0.000000e+00 0.000000e+00 0.000000e+00 
    55.5                0.000000e+00 0.000000e+00 0.000000e+00 0.000000e+00 0.000000e+00 0.000000e+00 0.000000e+00 0.000000e+00 0.000000e+00 0.000000e+00 0.000000e+00 0.000000e+00 
    56.5                0.000000e+00 0.000000e+00 0.000000e+00 0.000000e+00 0.000000e+00 0.000000e+00 0.000000e+00 0.000000e+00 0.000000e+00 0.000000e+00 0.000000e+00 0.000000e+00 
    57.5                0.000000e+00 0.000000e+00 0.000000e+00 0.000000e+00 0.000000e+00 0.000000e+00 0.000000e+00 0.000000e+00 0.000000e+00 0.000000e+00 0.000000e+00 0.000000e+00 
    58.5                0.000000e+00 0.000000e+00 0.000000e+00 0.000000e+00 0.000000e+00 0.000000e+00 0.000000e+00 0.000000e+00 0.000000e+00 0.000000e+00 0.000000e+00 0.000000e+00 
    59.5                0.000000e+00 0.000000e+00 0.000000e+00 0.000000e+00 0.000000e+00 0.000000e+00 0.000000e+00 0.000000e+00 0.000000e+00 0.000000e+00 0.000000e+00 0.000000e+00 
    60.5                0.000000e+00 0.000000e+00 0.000000e+00 0.000000e+00 0.000000e+00 0.000000e+00 0.000000e+00 0.000000e+00 0.000000e+00 0.000000e+00 0.000000e+00 0.000000e+00 
    61.5                0.000000e+00 0.000000e+00 0.000000e+00 0.000000e+00 0.000000e+00 0.000000e+00 0.000000e+00 0.000000e+00 0.000000e+00 0.000000e+00 0.000000e+00 0.000000e+00 
    62.5                0.000000e+00 0.000000e+00 0.000000e+00 0.000000e+00 0.000000e+00 0.000000e+00 0.000000e+00 0.000000e+00 0.000000e+00 0.000000e+00 0.000000e+00 0.000000e+00 
    63.5                0.000000e+00 0.000000e+00 0.000000e+00 0.000000e+00 0.000000e+00 0.000000e+00 0.000000e+00 0.000000e+00 0.000000e+00 0.000000e+00 0.000000e+00 0.000000e+00 
    64.5                0.000000e+00 0.000000e+00 0.000000e+00 0.000000e+00 0.000000e+00 0.000000e+00 0.000000e+00 0.000000e+00 0.000000e+00 0.000000e+00 0.000000e+00 0.000000e+00 
    65.5                0.000000e+00 0.000000e+00 0.000000e+00 0.000000e+00 0.000000e+00 0.000000e+00 0.000000e+00 0.000000e+00 0.000000e+00 0.000000e+00 0.000000e+00 0.000000e+00 
    66.5                0.000000e+00 0.000000e+00 0.000000e+00 0.000000e+00 0.000000e+00 0.000000e+00 0.000000e+00 0.000000e+00 0.000000e+00 0.000000e+00 0.000000e+00 0.000000e+00 
    67.5                0.000000e+00 0.000000e+00 0.000000e+00 0.000000e+00 0.000000e+00 0.000000e+00 0.000000e+00 0.000000e+00 0.000000e+00 0.000000e+00 0.000000e+00 0.000000e+00 
    68.5                0.000000e+00 0.000000e+00 0.000000e+00 0.000000e+00 0.000000e+00 0.000000e+00 0.000000e+00 0.000000e+00 0.000000e+00 0.000000e+00 0.000000e+00 0.000000e+00 
    69.5                0.000000e+00 0.000000e+00 0.000000e+00 0.000000e+00 0.000000e+00 0.000000e+00 0.000000e+00 0.000000e+00 0.000000e+00 0.000000e+00 0.000000e+00 0.000000e+00 
    70.5                0.000000e+00 0.000000e+00 0.000000e+00 0.000000e+00 0.000000e+00 0.000000e+00 0.000000e+00 0.000000e+00 0.000000e+00 0.000000e+00 0.000000e+00 0.000000e+00 
    71.5                0.000000e+00 0.000000e+00 0.000000e+00 0.000000e+00 0.000000e+00 0.000000e+00 0.000000e+00 0.000000e+00 0.000000e+00 0.000000e+00 0.000000e+00 0.000000e+00 
    72.5                0.000000e+00 0.000000e+00 0.000000e+00 0.000000e+00 0.000000e+00 0.000000e+00 0.000000e+00 0.000000e+00 0.000000e+00 0.000000e+00 0.000000e+00 0.000000e+00 
    73.5                0.000000e+00 0.000000e+00 0.000000e+00 0.000000e+00 0.000000e+00 0.000000e+00 0.000000e+00 0.000000e+00 0.000000e+00 0.000000e+00 0.000000e+00 0.000000e+00 
    74.5                0.000000e+00 0.000000e+00 0.000000e+00 0.000000e+00 0.000000e+00 0.000000e+00 0.000000e+00 0.000000e+00 0.000000e+00 0.000000e+00 0.000000e+00 0.000000e+00 
    75.5                0.000000e+00 0.000000e+00 0.000000e+00 0.000000e+00 0.000000e+00 0.000000e+00 0.000000e+00 0.000000e+00 0.000000e+00 0.000000e+00 0.000000e+00 0.000000e+00 
    76.5                0.000000e+00 0.000000e+00 0.000000e+00 0.000000e+00 0.000000e+00 0.000000e+00 0.000000e+00 0.000000e+00 0.000000e+00 0.000000e+00 0.000000e+00 0.000000e+00 
    77.5                0.000000e+00 0.000000e+00 0.000000e+00 0.000000e+00 0.000000e+00 0.000000e+00 0.000000e+00 0.000000e+00 0.000000e+00 0.000000e+00 0.000000e+00 0.000000e+00 
    78.5                0.000000e+00 0.000000e+00 0.000000e+00 0.000000e+00 0.000000e+00 0.000000e+00 0.000000e+00 0.000000e+00 0.000000e+00 0.000000e+00 0.000000e+00 0.000000e+00 
    79.5                0.000000e+00 0.000000e+00 0.000000e+00 0.000000e+00 0.000000e+00 0.000000e+00 0.000000e+00 0.000000e+00 0.000000e+00 0.000000e+00 0.000000e+00 0.000000e+00 


