# 80 rows of flux data
# 12 columns of flux data
# 
# total cross-sectional flux  2.324377e+00 /m^2/yr
#
#                             +x ram      -x wake      +y port -y starboard    +z zenith     -z nadir        Earth          Sun     anti-Sun      rot (x)      rot (y)      rot (z) 
# average speed (km/s)         24.49        24.49        25.37        17.78        23.67        23.86        24.48        24.96        24.96        23.95        24.25        24.45 
# total flux (#/m2/yr)  7.089942e-01 7.086031e-01 1.093018e+00 1.596761e-01 8.063269e-01 1.003247e-03 7.028618e-01 1.015112e+00 1.015349e+00 1.574091e+00 1.785933e+00 2.100762e+00 
# velocity (km/s)
     0.5                0.000000e+00 0.000000e+00 0.000000e+00 0.000000e+00 0.000000e+00 0.000000e+00 0.000000e+00 0.000000e+00 0.000000e+00 0.000000e+00 0.000000e+00 0.000000e+00 
     1.5                0.000000e+00 0.000000e+00 0.000000e+00 0.000000e+00 0.000000e+00 0.000000e+00 0.000000e+00 0.000000e+00 0.000000e+00 0.000000e+00 0.000000e+00 0.000000e+00 
     2.5                1.265286e-06 1.264795e-06 0.000000e+00 5.023577e-06 5.163241e-07 4.336641e-09 1.256036e-06 9.004864e-07 8.718080e-07 5.073504e-06 2.660695e-06 5.877191e-06 
     3.5                5.371551e-05 5.387091e-05 6.057555e-06 7.340631e-05 2.935490e-05 1.169206e-07 5.356078e-05 3.120352e-05 3.120471e-05 9.087369e-05 1.151780e-04 1.487253e-04 
     4.5                3.029922e-04 3.039098e-04 1.765575e-04 3.152610e-04 2.654826e-04 5.129847e-07 3.020548e-04 1.878453e-04 1.877593e-04 6.009625e-04 7.040774e-04 8.647962e-04 
     5.5                1.036653e-03 1.039328e-03 7.878530e-04 9.368005e-04 1.066522e-03 1.603058e-06 1.033471e-03 7.294272e-04 7.288641e-04 2.201373e-03 2.507305e-03 2.988447e-03 
     6.5                2.420349e-03 2.423828e-03 2.539339e-03 1.759543e-03 2.942284e-03 3.466798e-06 2.412363e-03 1.953247e-03 1.953266e-03 5.686701e-03 6.156009e-03 7.179287e-03 
     7.5                4.231601e-03 4.234624e-03 4.643059e-03 3.091069e-03 5.397482e-03 6.419670e-06 4.216023e-03 3.709247e-03 3.708840e-03 1.033323e-02 1.096556e-02 1.272873e-02 
     8.5                6.910211e-03 6.912845e-03 7.733534e-03 4.620270e-03 8.774066e-03 1.084175e-05 6.882811e-03 6.243743e-03 6.244637e-03 1.667535e-02 1.790965e-02 2.056415e-02 
     9.5                9.971937e-03 9.974745e-03 1.199455e-02 6.237781e-03 1.307624e-02 1.444106e-05 9.929847e-03 9.507770e-03 9.509018e-03 2.460235e-02 2.608320e-02 2.997545e-02 
    10.5                1.245394e-02 1.244823e-02 1.597607e-02 7.539284e-03 1.745563e-02 1.809678e-05 1.239316e-02 1.317762e-02 1.317945e-02 3.217401e-02 3.337198e-02 3.803688e-02 
    11.5                1.457569e-02 1.457341e-02 1.834006e-02 8.561326e-03 2.079322e-02 2.123223e-05 1.448841e-02 1.686914e-02 1.687091e-02 3.746234e-02 3.938206e-02 4.403269e-02 
    12.5                1.627991e-02 1.627447e-02 2.116838e-02 9.052643e-03 2.348871e-02 2.367632e-05 1.616996e-02 2.022492e-02 2.022893e-02 4.214347e-02 4.427709e-02 4.932721e-02 
    13.5                1.765338e-02 1.764877e-02 2.300454e-02 9.546522e-03 2.512446e-02 2.603218e-05 1.752109e-02 2.302196e-02 2.302518e-02 4.526213e-02 4.784620e-02 5.330433e-02 
    14.5                1.954229e-02 1.953356e-02 2.563146e-02 9.624762e-03 2.677157e-02 2.955644e-05 1.938539e-02 2.625830e-02 2.626305e-02 4.864336e-02 5.230172e-02 5.840285e-02 
    15.5                2.127115e-02 2.126730e-02 2.877378e-02 9.529905e-03 2.809300e-02 3.257884e-05 2.109314e-02 2.936253e-02 2.936852e-02 5.192819e-02 5.624906e-02 6.355225e-02 
    16.5                2.301439e-02 2.300285e-02 3.210303e-02 9.273383e-03 2.960263e-02 3.521927e-05 2.281472e-02 3.246822e-02 3.247497e-02 5.535345e-02 6.029404e-02 6.868162e-02 
    17.5                2.438356e-02 2.437692e-02 3.460032e-02 8.836456e-03 3.035795e-02 3.738451e-05 2.416547e-02 3.498039e-02 3.498746e-02 5.741750e-02 6.322427e-02 7.246404e-02 
    18.5                2.571116e-02 2.570164e-02 3.718352e-02 8.382756e-03 3.092976e-02 3.962290e-05 2.547519e-02 3.749837e-02 3.750459e-02 5.937094e-02 6.592168e-02 7.624382e-02 
    19.5                2.678233e-02 2.676903e-02 3.960706e-02 7.909009e-03 3.160710e-02 4.099424e-05 2.653090e-02 3.964874e-02 3.965700e-02 6.125015e-02 6.823722e-02 7.944953e-02 
    20.5                2.732021e-02 2.730835e-02 4.107435e-02 7.201407e-03 3.164533e-02 4.177223e-05 2.706013e-02 4.088150e-02 4.089148e-02 6.172606e-02 6.923582e-02 8.093143e-02 
    21.5                2.802639e-02 2.801517e-02 4.242093e-02 6.706221e-03 3.151622e-02 4.277462e-05 2.775821e-02 4.204914e-02 4.205951e-02 6.212529e-02 7.037963e-02 8.271824e-02 
    22.5                2.899780e-02 2.898518e-02 4.426881e-02 6.220231e-03 3.206849e-02 4.390335e-05 2.871855e-02 4.362534e-02 4.363499e-02 6.343005e-02 7.247121e-02 8.532727e-02 
    23.5                2.959461e-02 2.958108e-02 4.602455e-02 5.562256e-03 3.229038e-02 4.414780e-05 2.930875e-02 4.475629e-02 4.476794e-02 6.428020e-02 7.366035e-02 8.712600e-02 
    24.5                2.973667e-02 2.972221e-02 4.678628e-02 4.926657e-03 3.200633e-02 4.387928e-05 2.944920e-02 4.502818e-02 4.503812e-02 6.398813e-02 7.373395e-02 8.747090e-02 
    25.5                2.977690e-02 2.976227e-02 4.733659e-02 4.263155e-03 3.163159e-02 4.332260e-05 2.949081e-02 4.503259e-02 4.504313e-02 6.343106e-02 7.356351e-02 8.745802e-02 
    26.5                2.959200e-02 2.957562e-02 4.760063e-02 3.715112e-03 3.112438e-02 4.223717e-05 2.930920e-02 4.475944e-02 4.477008e-02 6.263873e-02 7.290451e-02 8.694711e-02 
    27.5                2.882526e-02 2.880783e-02 4.695056e-02 3.142866e-03 3.019447e-02 4.038931e-05 2.855164e-02 4.361562e-02 4.362811e-02 6.082689e-02 7.093534e-02 8.479263e-02 
    28.5                2.799993e-02 2.798328e-02 4.574834e-02 2.685426e-03 2.900026e-02 3.893046e-05 2.773642e-02 4.218567e-02 4.219535e-02 5.851439e-02 6.870215e-02 8.219902e-02 
    29.5                2.703228e-02 2.701486e-02 4.458038e-02 2.216823e-03 2.789278e-02 3.672692e-05 2.678055e-02 4.063708e-02 4.064845e-02 5.628627e-02 6.624818e-02 7.938970e-02 
    30.5                2.573323e-02 2.571666e-02 4.276398e-02 1.812512e-03 2.643320e-02 3.446721e-05 2.549654e-02 3.857716e-02 3.858609e-02 5.338682e-02 6.299728e-02 7.561212e-02 
    31.5                2.430693e-02 2.428933e-02 4.068730e-02 1.449090e-03 2.486984e-02 3.200225e-05 2.408576e-02 3.629973e-02 3.630968e-02 5.024113e-02 5.943749e-02 7.145504e-02 
    32.5                2.268195e-02 2.266510e-02 3.820994e-02 1.151740e-03 2.313740e-02 2.937871e-05 2.247862e-02 3.371303e-02 3.372249e-02 4.673751e-02 5.541784e-02 6.672001e-02 
    33.5                2.083421e-02 2.081536e-02 3.537795e-02 9.157936e-04 2.126601e-02 2.646968e-05 2.065049e-02 3.081822e-02 3.082629e-02 4.294391e-02 5.090039e-02 6.138911e-02 
    34.5                1.872887e-02 1.871331e-02 3.202050e-02 7.100956e-04 1.914052e-02 2.349371e-05 1.856709e-02 2.756145e-02 2.756847e-02 3.862482e-02 4.577055e-02 5.527227e-02 
    35.5                1.661973e-02 1.660327e-02 2.858918e-02 5.314583e-04 1.699338e-02 2.054800e-05 1.647852e-02 2.432289e-02 2.433049e-02 3.426938e-02 4.061593e-02 4.910835e-02 
    36.5                1.451101e-02 1.449669e-02 2.509695e-02 3.870317e-04 1.483843e-02 1.773007e-05 1.439048e-02 2.109431e-02 2.109952e-02 2.990429e-02 3.546053e-02 4.293008e-02 
    37.5                1.249157e-02 1.247818e-02 2.173165e-02 2.776544e-04 1.279354e-02 1.501845e-05 1.239002e-02 1.802677e-02 1.803233e-02 2.576101e-02 3.053230e-02 3.701026e-02 
    38.5                1.051543e-02 1.050282e-02 1.841587e-02 1.934920e-04 1.080198e-02 1.245645e-05 1.043178e-02 1.507376e-02 1.507846e-02 2.173382e-02 2.571853e-02 3.121955e-02 
    39.5                8.598794e-03 8.588177e-03 1.522935e-02 1.280612e-04 8.903450e-03 9.948217e-06 8.532280e-03 1.226048e-02 1.226431e-02 1.789905e-02 2.106929e-02 2.563244e-02 
    40.5                6.731551e-03 6.721537e-03 1.207733e-02 8.114243e-05 7.042375e-03 7.592050e-06 6.680937e-03 9.547118e-03 9.550072e-03 1.414550e-02 1.653465e-02 2.016712e-02 
    41.5                5.018395e-03 5.010042e-03 9.139370e-03 4.855458e-05 5.318235e-03 5.506522e-06 4.981854e-03 7.088014e-03 7.090110e-03 1.067337e-02 1.236572e-02 1.512620e-02 
    42.5                3.564578e-03 3.558583e-03 6.566789e-03 2.788357e-05 3.815167e-03 3.821316e-06 3.539397e-03 5.006387e-03 5.007790e-03 7.650949e-03 8.805824e-03 1.079628e-02 
    43.5                2.408663e-03 2.403636e-03 4.516467e-03 1.497011e-05 2.620883e-03 2.481212e-06 2.392164e-03 3.370288e-03 3.371769e-03 5.251981e-03 5.973772e-03 7.348770e-03 
    44.5                1.477021e-03 1.473836e-03 2.865096e-03 7.101315e-06 1.660792e-03 1.420835e-06 1.467358e-03 2.077126e-03 2.077915e-03 3.326006e-03 3.695039e-03 4.574682e-03 
    45.5                7.917437e-04 7.896033e-04 1.598049e-03 2.930428e-06 9.256001e-04 6.919487e-07 7.868469e-04 1.122359e-03 1.122729e-03 1.852624e-03 2.001256e-03 2.496518e-03 
    46.5                3.464692e-04 3.454293e-04 7.449770e-04 9.590449e-07 4.312008e-04 2.583928e-07 3.444990e-04 5.019719e-04 5.023074e-04 8.627375e-04 8.913282e-04 1.125424e-03 
    47.5                1.089672e-04 1.086403e-04 2.558514e-04 2.167660e-07 1.480021e-04 6.749591e-08 1.084154e-04 1.642390e-04 1.642979e-04 2.960459e-04 2.882515e-04 3.703657e-04 
    48.5                2.368175e-05 2.361676e-05 6.156176e-05 3.049365e-08 3.559328e-05 1.025167e-08 2.357991e-05 3.747883e-05 3.751300e-05 7.118403e-05 6.479318e-05 8.495627e-05 
    49.5                2.780087e-06 2.778837e-06 8.534263e-06 1.010248e-09 4.931400e-06 3.741287e-10 2.772179e-06 4.841753e-06 4.848801e-06 9.861478e-06 8.080490e-06 1.095341e-05 
    50.5                5.340731e-08 5.405269e-08 2.447875e-07 0.000000e+00 1.413894e-07 0.000000e+00 5.353114e-08 1.241008e-07 1.238965e-07 2.827575e-07 1.874443e-07 2.760913e-07 
    51.5                0.000000e+00 0.000000e+00 0.000000e+00 0.000000e+00 0.000000e+00 0.000000e+00 0.000000e+00 0.000000e+00 0.000000e+00 0.000000e+00 0.000000e+00 0.000000e+00 
    52.5                0.000000e+00 0.000000e+00 0.000000e+00 0.000000e+00 0.000000e+00 0.000000e+00 0.000000e+00 0.000000e+00 0.000000e+00 0.000000e+00 0.000000e+00 0.000000e+00 
    53.5                0.000000e+00 0.000000e+00 0.000000e+00 0.000000e+00 0.000000e+00 0.000000e+00 0.000000e+00 0.000000e+00 0.000000e+00 0.000000e+00 0.000000e+00 0.000000e+00 
    54.5                0.000000e+00 0.000000e+00 0.000000e+00 0.000000e+00 0.000000e+00 0.000000e+00 0.000000e+00 0.000000e+00 0.000000e+00 0.000000e+00 0.000000e+00 0.000000e+00 
    55.5                0.000000e+00 0.000000e+00 0.000000e+00 0.000000e+00 0.000000e+00 0.000000e+00 0.000000e+00 0.000000e+00 0.000000e+00 0.000000e+00 0.000000e+00 0.000000e+00 
    56.5                0.000000e+00 0.000000e+00 0.000000e+00 0.000000e+00 0.000000e+00 0.000000e+00 0.000000e+00 0.000000e+00 0.000000e+00 0.000000e+00 0.000000e+00 0.000000e+00 
    57.5                0.000000e+00 0.000000e+00 0.000000e+00 0.000000e+00 0.000000e+00 0.000000e+00 0.000000e+00 0.000000e+00 0.000000e+00 0.000000e+00 0.000000e+00 0.000000e+00 
    58.5                0.000000e+00 0.000000e+00 0.000000e+00 0.000000e+00 0.000000e+00 0.000000e+00 0.000000e+00 0.000000e+00 0.000000e+00 0.000000e+00 0.000000e+00 0.000000e+00 
    59.5                0.000000e+00 0.000000e+00 0.000000e+00 0.000000e+00 0.000000e+00 0.000000e+00 0.000000e+00 0.000000e+00 0.000000e+00 0.000000e+00 0.000000e+00 0.000000e+00 
    60.5                0.000000e+00 0.000000e+00 0.000000e+00 0.000000e+00 0.000000e+00 0.000000e+00 0.000000e+00 0.000000e+00 0.000000e+00 0.000000e+00 0.000000e+00 0.000000e+00 
    61.5                0.000000e+00 0.000000e+00 0.000000e+00 0.000000e+00 0.000000e+00 0.000000e+00 0.000000e+00 0.000000e+00 0.000000e+00 0.000000e+00 0.000000e+00 0.000000e+00 
    62.5                0.000000e+00 0.000000e+00 0.000000e+00 0.000000e+00 0.000000e+00 0.000000e+00 0.000000e+00 0.000000e+00 0.000000e+00 0.000000e+00 0.000000e+00 0.000000e+00 
    63.5                0.000000e+00 0.000000e+00 0.000000e+00 0.000000e+00 0.000000e+00 0.000000e+00 0.000000e+00 0.000000e+00 0.000000e+00 0.000000e+00 0.000000e+00 0.000000e+00 
    64.5                0.000000e+00 0.000000e+00 0.000000e+00 0.000000e+00 0.000000e+00 0.000000e+00 0.000000e+00 0.000000e+00 0.000000e+00 0.000000e+00 0.000000e+00 0.000000e+00 
    65.5                0.000000e+00 0.000000e+00 0.000000e+00 0.000000e+00 0.000000e+00 0.000000e+00 0.000000e+00 0.000000e+00 0.000000e+00 0.000000e+00 0.000000e+00 0.000000e+00 
    66.5                0.000000e+00 0.000000e+00 0.000000e+00 0.000000e+00 0.000000e+00 0.000000e+00 0.000000e+00 0.000000e+00 0.000000e+00 0.000000e+00 0.000000e+00 0.000000e+00 
    67.5                0.000000e+00 0.000000e+00 0.000000e+00 0.000000e+00 0.000000e+00 0.000000e+00 0.000000e+00 0.000000e+00 0.000000e+00 0.000000e+00 0.000000e+00 0.000000e+00 
    68.5                0.000000e+00 0.000000e+00 0.000000e+00 0.000000e+00 0.000000e+00 0.000000e+00 0.000000e+00 0.000000e+00 0.000000e+00 0.000000e+00 0.000000e+00 0.000000e+00 
    69.5                0.000000e+00 0.000000e+00 0.000000e+00 0.000000e+00 0.000000e+00 0.000000e+00 0.000000e+00 0.000000e+00 0.000000e+00 0.000000e+00 0.000000e+00 0.000000e+00 
    70.5                0.000000e+00 0.000000e+00 0.000000e+00 0.000000e+00 0.000000e+00 0.000000e+00 0.000000e+00 0.000000e+00 0.000000e+00 0.000000e+00 0.000000e+00 0.000000e+00 
    71.5                0.000000e+00 0.000000e+00 0.000000e+00 0.000000e+00 0.000000e+00 0.000000e+00 0.000000e+00 0.000000e+00 0.000000e+00 0.000000e+00 0.000000e+00 0.000000e+00 
    72.5                0.000000e+00 0.000000e+00 0.000000e+00 0.000000e+00 0.000000e+00 0.000000e+00 0.000000e+00 0.000000e+00 0.000000e+00 0.000000e+00 0.000000e+00 0.000000e+00 
    73.5                0.000000e+00 0.000000e+00 0.000000e+00 0.000000e+00 0.000000e+00 0.000000e+00 0.000000e+00 0.000000e+00 0.000000e+00 0.000000e+00 0.000000e+00 0.000000e+00 
    74.5                0.000000e+00 0.000000e+00 0.000000e+00 0.000000e+00 0.000000e+00 0.000000e+00 0.000000e+00 0.000000e+00 0.000000e+00 0.000000e+00 0.000000e+00 0.000000e+00 
    75.5                0.000000e+00 0.000000e+00 0.000000e+00 0.000000e+00 0.000000e+00 0.000000e+00 0.000000e+00 0.000000e+00 0.000000e+00 0.000000e+00 0.000000e+00 0.000000e+00 
    76.5                0.000000e+00 0.000000e+00 0.000000e+00 0.000000e+00 0.000000e+00 0.000000e+00 0.000000e+00 0.000000e+00 0.000000e+00 0.000000e+00 0.000000e+00 0.000000e+00 
    77.5                0.000000e+00 0.000000e+00 0.000000e+00 0.000000e+00 0.000000e+00 0.000000e+00 0.000000e+00 0.000000e+00 0.000000e+00 0.000000e+00 0.000000e+00 0.000000e+00 
    78.5                0.000000e+00 0.000000e+00 0.000000e+00 0.000000e+00 0.000000e+00 0.000000e+00 0.000000e+00 0.000000e+00 0.000000e+00 0.000000e+00 0.000000e+00 0.000000e+00 
    79.5                0.000000e+00 0.000000e+00 0.000000e+00 0.000000e+00 0.000000e+00 0.000000e+00 0.000000e+00 0.000000e+00 0.000000e+00 0.000000e+00 0.000000e+00 0.000000e+00 


