# 80 rows of flux data
# 12 columns of flux data
# 
# total cross-sectional flux  2.298097e+00 /m^2/yr
#
#                             +x ram      -x wake      +y port -y starboard    +z zenith     -z nadir        Earth          Sun     anti-Sun      rot (x)      rot (y)      rot (z) 
# average speed (km/s)         24.48        24.48        24.74        17.17        24.47        23.40        24.47        25.00        25.00        24.00        24.47        24.28 
# total flux (#/m2/yr)  6.994142e-01 6.988493e-01 7.921239e-01 1.024386e-01 1.171917e+00 6.119846e-04 6.926243e-01 1.001634e+00 1.001874e+00 1.559843e+00 2.028740e+00 1.822806e+00 
# velocity (km/s)
     0.5                0.000000e+00 0.000000e+00 0.000000e+00 0.000000e+00 0.000000e+00 0.000000e+00 0.000000e+00 0.000000e+00 0.000000e+00 0.000000e+00 0.000000e+00 0.000000e+00 
     1.5                0.000000e+00 0.000000e+00 0.000000e+00 0.000000e+00 0.000000e+00 0.000000e+00 0.000000e+00 0.000000e+00 0.000000e+00 0.000000e+00 0.000000e+00 0.000000e+00 
     2.5                2.196595e-07 2.454885e-07 0.000000e+00 4.464603e-07 2.090330e-08 2.945928e-09 2.194919e-07 1.866990e-07 1.653519e-07 4.480455e-07 4.686469e-07 7.175352e-07 
     3.5                3.702213e-05 3.735412e-05 5.274991e-06 2.381422e-05 1.758979e-05 7.613610e-08 3.688192e-05 2.033231e-05 2.026037e-05 3.858338e-05 7.799974e-05 8.541136e-05 
     4.5                2.429316e-04 2.443722e-04 1.315463e-04 1.243787e-04 2.520592e-04 3.683819e-07 2.420877e-04 1.408337e-04 1.405276e-04 3.977789e-04 5.946038e-04 5.926948e-04 
     5.5                9.061247e-04 9.113612e-04 6.178614e-04 4.775511e-04 1.094024e-03 1.230856e-06 9.029363e-04 5.966694e-04 5.956887e-04 1.721480e-03 2.321517e-03 2.302669e-03 
     6.5                2.275668e-03 2.280364e-03 2.048642e-03 1.013118e-03 3.374409e-03 2.597893e-06 2.266929e-03 1.759443e-03 1.759143e-03 5.055322e-03 6.268034e-03 5.989246e-03 
     7.5                4.003588e-03 4.008996e-03 3.829258e-03 1.851785e-03 6.240769e-03 4.660021e-06 3.986671e-03 3.413713e-03 3.413336e-03 9.379901e-03 1.126217e-02 1.076562e-02 
     8.5                6.602827e-03 6.607200e-03 6.530243e-03 2.706737e-03 1.042210e-02 7.601019e-06 6.572829e-03 5.841868e-03 5.843321e-03 1.546219e-02 1.868085e-02 1.766218e-02 
     9.5                9.749288e-03 9.751601e-03 9.975736e-03 3.932845e-03 1.580508e-02 1.061512e-05 9.702182e-03 9.044276e-03 9.045733e-03 2.334064e-02 2.785529e-02 2.626569e-02 
    10.5                1.238379e-02 1.237644e-02 1.350289e-02 5.209855e-03 2.126384e-02 1.329846e-05 1.231802e-02 1.270583e-02 1.270871e-02 3.144674e-02 3.625565e-02 3.412900e-02 
    11.5                1.459581e-02 1.459247e-02 1.592689e-02 6.373980e-03 2.519838e-02 1.593040e-05 1.450454e-02 1.648894e-02 1.649130e-02 3.739083e-02 4.285351e-02 4.043924e-02 
    12.5                1.635879e-02 1.634961e-02 1.831780e-02 6.945639e-03 2.881617e-02 1.726840e-05 1.624376e-02 1.996290e-02 1.996791e-02 4.249241e-02 4.847558e-02 4.560156e-02 
    13.5                1.759974e-02 1.758901e-02 1.960527e-02 7.324425e-03 3.098866e-02 1.896259e-05 1.746140e-02 2.270879e-02 2.271300e-02 4.535590e-02 5.216833e-02 4.889954e-02 
    14.5                1.944677e-02 1.943360e-02 2.142397e-02 7.231770e-03 3.367391e-02 2.034512e-05 1.928123e-02 2.593475e-02 2.594003e-02 4.864142e-02 5.723872e-02 5.327238e-02 
    15.5                2.112936e-02 2.111941e-02 2.336742e-02 6.851139e-03 3.628009e-02 2.150139e-05 2.094000e-02 2.899729e-02 2.900357e-02 5.169590e-02 6.199771e-02 5.727937e-02 
    16.5                2.284249e-02 2.282619e-02 2.543481e-02 6.548781e-03 3.912645e-02 2.236549e-05 2.262774e-02 3.210798e-02 3.211538e-02 5.503566e-02 6.692378e-02 6.141784e-02 
    17.5                2.414425e-02 2.413121e-02 2.699856e-02 5.968224e-03 4.105016e-02 2.308310e-05 2.390957e-02 3.456418e-02 3.457145e-02 5.708744e-02 7.052385e-02 6.435154e-02 
    18.5                2.541116e-02 2.539736e-02 2.842211e-02 5.356374e-03 4.278382e-02 2.377591e-05 2.515613e-02 3.702212e-02 3.703015e-02 5.881459e-02 7.391819e-02 6.708943e-02 
    19.5                2.646912e-02 2.645084e-02 2.978445e-02 4.907948e-03 4.451021e-02 2.409611e-05 2.619618e-02 3.915086e-02 3.916018e-02 6.063308e-02 7.692848e-02 6.953693e-02 
    20.5                2.701117e-02 2.699327e-02 3.050500e-02 4.359161e-03 4.530485e-02 2.419647e-05 2.672787e-02 4.040695e-02 4.041662e-02 6.117735e-02 7.843388e-02 7.061285e-02 
    21.5                2.761044e-02 2.759492e-02 3.108060e-02 3.813863e-03 4.583811e-02 2.453548e-05 2.731813e-02 4.146096e-02 4.147180e-02 6.138547e-02 7.982098e-02 7.166165e-02 
    22.5                2.856357e-02 2.854607e-02 3.210389e-02 3.508476e-03 4.719619e-02 2.503798e-05 2.825840e-02 4.304390e-02 4.305348e-02 6.274742e-02 8.240506e-02 7.380779e-02 
    23.5                2.917090e-02 2.915157e-02 3.300171e-02 3.020112e-03 4.824225e-02 2.499261e-05 2.885690e-02 4.420879e-02 4.422054e-02 6.365090e-02 8.417293e-02 7.513880e-02 
    24.5                2.930744e-02 2.928690e-02 3.321122e-02 2.622228e-03 4.837332e-02 2.484931e-05 2.899049e-02 4.449516e-02 4.450500e-02 6.340491e-02 8.449563e-02 7.526321e-02 
    25.5                2.934232e-02 2.932200e-02 3.329152e-02 2.237154e-03 4.833653e-02 2.456547e-05 2.902560e-02 4.452042e-02 4.453159e-02 6.292415e-02 8.452007e-02 7.512363e-02 
    26.5                2.915389e-02 2.913079e-02 3.316266e-02 1.900913e-03 4.802586e-02 2.403740e-05 2.883967e-02 4.424471e-02 4.425448e-02 6.211332e-02 8.396602e-02 7.449045e-02 
    27.5                2.839858e-02 2.837479e-02 3.247925e-02 1.615235e-03 4.695229e-02 2.311292e-05 2.809320e-02 4.313393e-02 4.314613e-02 6.038447e-02 8.191409e-02 7.252480e-02 
    28.5                2.756144e-02 2.753791e-02 3.144617e-02 1.366350e-03 4.539041e-02 2.232549e-05 2.726674e-02 4.170686e-02 4.171578e-02 5.808961e-02 7.936596e-02 7.021267e-02 
    29.5                2.662143e-02 2.659704e-02 3.047475e-02 1.149893e-03 4.392319e-02 2.128499e-05 2.633853e-02 4.020578e-02 4.021642e-02 5.595289e-02 7.670336e-02 6.776692e-02 
    30.5                2.534031e-02 2.531745e-02 2.908302e-02 9.364788e-04 4.186111e-02 2.012668e-05 2.507338e-02 3.817210e-02 3.818080e-02 5.309110e-02 7.305314e-02 6.446452e-02 
    31.5                2.393908e-02 2.391456e-02 2.753599e-02 7.515950e-04 3.958920e-02 1.883334e-05 2.368869e-02 3.592591e-02 3.593525e-02 4.998340e-02 6.903837e-02 6.085386e-02 
    32.5                2.232705e-02 2.230374e-02 2.575612e-02 5.936853e-04 3.699501e-02 1.739737e-05 2.209599e-02 3.335961e-02 3.336844e-02 4.650988e-02 6.443791e-02 5.673734e-02 
    33.5                2.050546e-02 2.047958e-02 2.377100e-02 4.716072e-04 3.411834e-02 1.576481e-05 2.029580e-02 3.049384e-02 3.050175e-02 4.274150e-02 5.927335e-02 5.212979e-02 
    34.5                1.843662e-02 1.841419e-02 2.146766e-02 3.709500e-04 3.079303e-02 1.405912e-05 1.825111e-02 2.727909e-02 2.728577e-02 3.846744e-02 5.337685e-02 4.690101e-02 
    35.5                1.636053e-02 1.633782e-02 1.912251e-02 2.780781e-04 2.741496e-02 1.234667e-05 1.619798e-02 2.407604e-02 2.408371e-02 3.414321e-02 4.742470e-02 4.163185e-02 
    36.5                1.428357e-02 1.426339e-02 1.675223e-02 2.008176e-04 2.400137e-02 1.069631e-05 1.414417e-02 2.088106e-02 2.088548e-02 2.980439e-02 4.145164e-02 3.635818e-02 
    37.5                1.229425e-02 1.227534e-02 1.448122e-02 1.434625e-04 2.073850e-02 9.092056e-06 1.217627e-02 1.784396e-02 1.784932e-02 2.568347e-02 3.572990e-02 3.131268e-02 
    38.5                1.034928e-02 1.033153e-02 1.225456e-02 9.843963e-05 1.754297e-02 7.556825e-06 1.025164e-02 1.492151e-02 1.492612e-02 2.167445e-02 3.013659e-02 2.638504e-02 
    39.5                8.464969e-03 8.449373e-03 1.012160e-02 6.392435e-05 1.448461e-02 6.048206e-06 8.386803e-03 1.213927e-02 1.214289e-02 1.785627e-02 2.474209e-02 2.163086e-02 
    40.5                6.628274e-03 6.613795e-03 8.019027e-03 3.974536e-05 1.147256e-02 4.628677e-06 6.568374e-03 9.454445e-03 9.457404e-03 1.411584e-02 1.946492e-02 1.698890e-02 
    41.5                4.942878e-03 4.930856e-03 6.063876e-03 2.324811e-05 8.673491e-03 3.361658e-06 4.899281e-03 7.020988e-03 7.022997e-03 1.065418e-02 1.459858e-02 1.271752e-02 
    42.5                3.510791e-03 3.501915e-03 4.354557e-03 1.284945e-05 6.227586e-03 2.333890e-06 3.480534e-03 4.959106e-03 4.960551e-03 7.638867e-03 1.041710e-02 9.061164e-03 
    43.5                2.373945e-03 2.366612e-03 2.993866e-03 6.748155e-06 4.281017e-03 1.516707e-06 2.353941e-03 3.340054e-03 3.341421e-03 5.245223e-03 7.091486e-03 6.155123e-03 
    44.5                1.457211e-03 1.452229e-03 1.898660e-03 3.079804e-06 2.714480e-03 8.705912e-07 1.445309e-03 2.059919e-03 2.060626e-03 3.322632e-03 4.414617e-03 3.815946e-03 
    45.5                7.821757e-04 7.788714e-04 1.058814e-03 1.221919e-06 1.513549e-03 4.255020e-07 7.760206e-04 1.114028e-03 1.114372e-03 1.851186e-03 2.409434e-03 2.072579e-03 
    46.5                3.431010e-04 3.413429e-04 4.935662e-04 3.905839e-07 7.053805e-04 1.601284e-07 3.405381e-04 4.989398e-04 4.992840e-04 8.622768e-04 1.086404e-03 9.273359e-04 
    47.5                1.081524e-04 1.075323e-04 1.695044e-04 8.593252e-08 2.421934e-04 4.205792e-08 1.073948e-04 1.634630e-04 1.635371e-04 2.959493e-04 3.573838e-04 3.016512e-04 
    48.5                2.357902e-05 2.342694e-05 4.078561e-05 1.172066e-08 5.826165e-05 6.308543e-09 2.342781e-05 3.736208e-05 3.739969e-05 7.117232e-05 8.195005e-05 6.828147e-05 
    49.5                2.781557e-06 2.767242e-06 5.653756e-06 3.722855e-10 8.073820e-06 2.087057e-10 2.766695e-06 4.836341e-06 4.845983e-06 9.860751e-06 1.055604e-05 8.611897e-06 
    50.5                5.340102e-08 5.380614e-08 1.620348e-07 0.000000e+00 2.313410e-07 0.000000e+00 5.333050e-08 1.238230e-07 1.238932e-07 2.825134e-07 2.639096e-07 2.040635e-07 
    51.5                0.000000e+00 0.000000e+00 0.000000e+00 0.000000e+00 0.000000e+00 0.000000e+00 0.000000e+00 0.000000e+00 0.000000e+00 0.000000e+00 0.000000e+00 0.000000e+00 
    52.5                0.000000e+00 0.000000e+00 0.000000e+00 0.000000e+00 0.000000e+00 0.000000e+00 0.000000e+00 0.000000e+00 0.000000e+00 0.000000e+00 0.000000e+00 0.000000e+00 
    53.5                0.000000e+00 0.000000e+00 0.000000e+00 0.000000e+00 0.000000e+00 0.000000e+00 0.000000e+00 0.000000e+00 0.000000e+00 0.000000e+00 0.000000e+00 0.000000e+00 
    54.5                0.000000e+00 0.000000e+00 0.000000e+00 0.000000e+00 0.000000e+00 0.000000e+00 0.000000e+00 0.000000e+00 0.000000e+00 0.000000e+00 0.000000e+00 0.000000e+00 
    55.5                0.000000e+00 0.000000e+00 0.000000e+00 0.000000e+00 0.000000e+00 0.000000e+00 0.000000e+00 0.000000e+00 0.000000e+00 0.000000e+00 0.000000e+00 0.000000e+00 
    56.5                0.000000e+00 0.000000e+00 0.000000e+00 0.000000e+00 0.000000e+00 0.000000e+00 0.000000e+00 0.000000e+00 0.000000e+00 0.000000e+00 0.000000e+00 0.000000e+00 
    57.5                0.000000e+00 0.000000e+00 0.000000e+00 0.000000e+00 0.000000e+00 0.000000e+00 0.000000e+00 0.000000e+00 0.000000e+00 0.000000e+00 0.000000e+00 0.000000e+00 
    58.5                0.000000e+00 0.000000e+00 0.000000e+00 0.000000e+00 0.000000e+00 0.000000e+00 0.000000e+00 0.000000e+00 0.000000e+00 0.000000e+00 0.000000e+00 0.000000e+00 
    59.5                0.000000e+00 0.000000e+00 0.000000e+00 0.000000e+00 0.000000e+00 0.000000e+00 0.000000e+00 0.000000e+00 0.000000e+00 0.000000e+00 0.000000e+00 0.000000e+00 
    60.5                0.000000e+00 0.000000e+00 0.000000e+00 0.000000e+00 0.000000e+00 0.000000e+00 0.000000e+00 0.000000e+00 0.000000e+00 0.000000e+00 0.000000e+00 0.000000e+00 
    61.5                0.000000e+00 0.000000e+00 0.000000e+00 0.000000e+00 0.000000e+00 0.000000e+00 0.000000e+00 0.000000e+00 0.000000e+00 0.000000e+00 0.000000e+00 0.000000e+00 
    62.5                0.000000e+00 0.000000e+00 0.000000e+00 0.000000e+00 0.000000e+00 0.000000e+00 0.000000e+00 0.000000e+00 0.000000e+00 0.000000e+00 0.000000e+00 0.000000e+00 
    63.5                0.000000e+00 0.000000e+00 0.000000e+00 0.000000e+00 0.000000e+00 0.000000e+00 0.000000e+00 0.000000e+00 0.000000e+00 0.000000e+00 0.000000e+00 0.000000e+00 
    64.5                0.000000e+00 0.000000e+00 0.000000e+00 0.000000e+00 0.000000e+00 0.000000e+00 0.000000e+00 0.000000e+00 0.000000e+00 0.000000e+00 0.000000e+00 0.000000e+00 
    65.5                0.000000e+00 0.000000e+00 0.000000e+00 0.000000e+00 0.000000e+00 0.000000e+00 0.000000e+00 0.000000e+00 0.000000e+00 0.000000e+00 0.000000e+00 0.000000e+00 
    66.5                0.000000e+00 0.000000e+00 0.000000e+00 0.000000e+00 0.000000e+00 0.000000e+00 0.000000e+00 0.000000e+00 0.000000e+00 0.000000e+00 0.000000e+00 0.000000e+00 
    67.5                0.000000e+00 0.000000e+00 0.000000e+00 0.000000e+00 0.000000e+00 0.000000e+00 0.000000e+00 0.000000e+00 0.000000e+00 0.000000e+00 0.000000e+00 0.000000e+00 
    68.5                0.000000e+00 0.000000e+00 0.000000e+00 0.000000e+00 0.000000e+00 0.000000e+00 0.000000e+00 0.000000e+00 0.000000e+00 0.000000e+00 0.000000e+00 0.000000e+00 
    69.5                0.000000e+00 0.000000e+00 0.000000e+00 0.000000e+00 0.000000e+00 0.000000e+00 0.000000e+00 0.000000e+00 0.000000e+00 0.000000e+00 0.000000e+00 0.000000e+00 
    70.5                0.000000e+00 0.000000e+00 0.000000e+00 0.000000e+00 0.000000e+00 0.000000e+00 0.000000e+00 0.000000e+00 0.000000e+00 0.000000e+00 0.000000e+00 0.000000e+00 
    71.5                0.000000e+00 0.000000e+00 0.000000e+00 0.000000e+00 0.000000e+00 0.000000e+00 0.000000e+00 0.000000e+00 0.000000e+00 0.000000e+00 0.000000e+00 0.000000e+00 
    72.5                0.000000e+00 0.000000e+00 0.000000e+00 0.000000e+00 0.000000e+00 0.000000e+00 0.000000e+00 0.000000e+00 0.000000e+00 0.000000e+00 0.000000e+00 0.000000e+00 
    73.5                0.000000e+00 0.000000e+00 0.000000e+00 0.000000e+00 0.000000e+00 0.000000e+00 0.000000e+00 0.000000e+00 0.000000e+00 0.000000e+00 0.000000e+00 0.000000e+00 
    74.5                0.000000e+00 0.000000e+00 0.000000e+00 0.000000e+00 0.000000e+00 0.000000e+00 0.000000e+00 0.000000e+00 0.000000e+00 0.000000e+00 0.000000e+00 0.000000e+00 
    75.5                0.000000e+00 0.000000e+00 0.000000e+00 0.000000e+00 0.000000e+00 0.000000e+00 0.000000e+00 0.000000e+00 0.000000e+00 0.000000e+00 0.000000e+00 0.000000e+00 
    76.5                0.000000e+00 0.000000e+00 0.000000e+00 0.000000e+00 0.000000e+00 0.000000e+00 0.000000e+00 0.000000e+00 0.000000e+00 0.000000e+00 0.000000e+00 0.000000e+00 
    77.5                0.000000e+00 0.000000e+00 0.000000e+00 0.000000e+00 0.000000e+00 0.000000e+00 0.000000e+00 0.000000e+00 0.000000e+00 0.000000e+00 0.000000e+00 0.000000e+00 
    78.5                0.000000e+00 0.000000e+00 0.000000e+00 0.000000e+00 0.000000e+00 0.000000e+00 0.000000e+00 0.000000e+00 0.000000e+00 0.000000e+00 0.000000e+00 0.000000e+00 
    79.5                0.000000e+00 0.000000e+00 0.000000e+00 0.000000e+00 0.000000e+00 0.000000e+00 0.000000e+00 0.000000e+00 0.000000e+00 0.000000e+00 0.000000e+00 0.000000e+00 


