# 80 rows of flux data
# 12 columns of flux data
# 
# total cross-sectional flux  1.108900e+00 /m^2/yr
#
#                             +x ram      -x wake      +y port -y starboard    +z zenith     -z nadir        Earth          Sun     anti-Sun      rot (x)      rot (y)      rot (z) 
# average speed (km/s)         37.30        37.31        27.87        37.71        34.97        33.66        37.34        27.63        27.63        33.49        36.12        34.24 
# total flux (#/m2/yr)  2.485951e-01 2.483626e-01 3.667182e-01 2.630894e-01 5.301101e-01 4.008286e-04 2.481918e-01 1.834545e-01 1.834660e-01 9.225849e-01 8.084887e-01 8.791316e-01 
# velocity (km/s)
     0.5                0.000000e+00 0.000000e+00 0.000000e+00 0.000000e+00 0.000000e+00 0.000000e+00 0.000000e+00 0.000000e+00 0.000000e+00 0.000000e+00 0.000000e+00 0.000000e+00 
     1.5                0.000000e+00 0.000000e+00 0.000000e+00 0.000000e+00 0.000000e+00 0.000000e+00 0.000000e+00 0.000000e+00 0.000000e+00 0.000000e+00 0.000000e+00 0.000000e+00 
     2.5                9.071952e-05 9.147158e-05 1.002261e-04 5.247978e-05 1.113559e-04 9.611247e-08 9.032677e-05 7.520655e-05 7.543893e-05 2.095968e-04 2.300260e-04 2.627664e-04 
     3.5                4.349908e-04 4.356247e-04 3.934032e-04 3.255111e-04 6.904171e-04 4.408758e-07 4.328924e-04 3.918550e-04 3.916399e-04 1.115230e-03 1.223779e-03 1.239594e-03 
     4.5                9.573577e-04 9.565532e-04 8.188465e-04 9.063620e-04 1.772908e-03 9.509294e-07 9.524511e-04 9.642376e-04 9.643870e-04 2.763361e-03 2.890773e-03 2.841787e-03 
     5.5                1.537518e-03 1.535566e-03 1.421951e-03 1.616022e-03 3.023346e-03 1.660680e-06 1.529000e-03 1.694253e-03 1.694550e-03 4.795502e-03 4.782763e-03 4.772406e-03 
     6.5                2.131640e-03 2.127996e-03 2.243239e-03 2.341788e-03 4.400749e-03 2.487032e-06 2.119653e-03 2.471994e-03 2.472526e-03 7.105343e-03 6.803712e-03 6.919832e-03 
     7.5                2.651097e-03 2.647338e-03 3.228907e-03 2.936275e-03 5.651341e-03 3.423388e-06 2.636369e-03 3.164963e-03 3.165346e-03 9.343529e-03 8.599972e-03 8.976839e-03 
     8.5                3.094066e-03 3.088945e-03 4.185348e-03 3.469313e-03 6.817144e-03 4.277160e-06 3.077338e-03 3.773601e-03 3.774692e-03 1.143162e-02 1.022479e-02 1.085068e-02 
     9.5                3.500916e-03 3.495871e-03 5.213506e-03 3.858232e-03 7.834958e-03 5.011349e-06 3.482131e-03 4.326860e-03 4.327663e-03 1.334184e-02 1.165866e-02 1.261288e-02 
    10.5                3.795585e-03 3.789005e-03 6.221293e-03 4.169737e-03 8.709932e-03 5.754325e-06 3.775585e-03 4.774206e-03 4.775275e-03 1.506588e-02 1.281504e-02 1.412372e-02 
    11.5                4.143094e-03 4.136922e-03 7.483401e-03 4.450157e-03 9.744592e-03 6.462848e-06 4.121653e-03 5.309102e-03 5.310230e-03 1.706795e-02 1.418306e-02 1.591891e-02 
    12.5                4.377137e-03 4.369816e-03 8.493282e-03 4.688692e-03 1.048275e-02 7.167016e-06 4.354722e-03 5.717855e-03 5.718475e-03 1.863466e-02 1.512256e-02 1.727092e-02 
    13.5                4.450851e-03 4.443795e-03 9.353967e-03 4.764463e-03 1.110226e-02 7.577096e-06 4.430613e-03 5.859960e-03 5.861226e-03 1.979509e-02 1.575622e-02 1.818977e-02 
    14.5                4.452510e-03 4.446824e-03 9.990377e-03 4.580415e-03 1.113987e-02 7.597354e-06 4.432329e-03 5.886432e-03 5.887544e-03 2.017366e-02 1.578373e-02 1.857904e-02 
    15.5                4.557674e-03 4.550309e-03 1.093053e-02 4.614813e-03 1.174212e-02 7.979613e-06 4.538811e-03 5.974264e-03 5.975350e-03 2.135644e-02 1.642657e-02 1.953680e-02 
    16.5                4.525446e-03 4.518880e-03 1.121167e-02 4.514492e-03 1.174821e-02 8.125299e-06 4.507135e-03 5.957626e-03 5.958596e-03 2.149821e-02 1.639138e-02 1.964368e-02 
    17.5                4.556279e-03 4.548558e-03 1.164583e-02 4.496764e-03 1.191081e-02 8.331523e-06 4.538747e-03 5.946919e-03 5.948107e-03 2.195483e-02 1.656719e-02 2.002848e-02 
    18.5                4.550041e-03 4.543809e-03 1.209249e-02 4.440317e-03 1.199657e-02 8.513206e-06 4.533542e-03 5.859555e-03 5.860469e-03 2.232052e-02 1.661501e-02 2.033440e-02 
    19.5                4.547663e-03 4.540975e-03 1.226761e-02 4.347219e-03 1.192486e-02 8.626439e-06 4.531535e-03 5.761215e-03 5.762177e-03 2.234737e-02 1.654027e-02 2.036637e-02 
    20.5                4.446591e-03 4.440575e-03 1.214321e-02 4.294268e-03 1.171433e-02 8.910769e-06 4.432014e-03 5.543532e-03 5.544747e-03 2.207480e-02 1.620745e-02 2.004676e-02 
    21.5                4.379684e-03 4.374425e-03 1.229100e-02 4.186278e-03 1.149406e-02 9.031549e-06 4.366583e-03 5.339972e-03 5.340737e-03 2.195189e-02 1.594067e-02 1.997429e-02 
    22.5                4.432658e-03 4.426032e-03 1.255341e-02 4.261582e-03 1.166891e-02 9.240119e-06 4.421129e-03 5.263110e-03 5.264047e-03 2.236544e-02 1.614332e-02 2.030434e-02 
    23.5                4.180512e-03 4.174373e-03 1.183776e-02 4.093154e-03 1.102577e-02 9.109777e-06 4.170061e-03 4.915445e-03 4.916368e-03 2.119525e-02 1.524662e-02 1.918999e-02 
    24.5                4.019996e-03 4.015123e-03 1.140496e-02 3.881863e-03 1.040156e-02 8.801214e-06 4.009830e-03 4.618413e-03 4.619106e-03 2.024277e-02 1.448505e-02 1.839385e-02 
    25.5                3.899677e-03 3.893831e-03 1.112514e-02 3.810999e-03 1.012567e-02 8.784749e-06 3.890618e-03 4.346226e-03 4.346856e-03 1.976179e-02 1.407239e-02 1.790857e-02 
    26.5                3.813173e-03 3.809031e-03 1.068410e-02 3.660524e-03 9.639241e-03 8.997641e-06 3.804089e-03 4.108008e-03 4.108557e-03 1.895651e-02 1.354143e-02 1.725803e-02 
    27.5                3.720549e-03 3.716052e-03 1.016058e-02 3.665030e-03 9.319064e-03 9.095794e-06 3.712346e-03 3.903893e-03 3.904118e-03 1.832489e-02 1.313986e-02 1.664535e-02 
    28.5                3.577851e-03 3.573196e-03 9.617751e-03 3.566827e-03 8.838388e-03 8.763656e-06 3.570215e-03 3.640159e-03 3.640879e-03 1.747013e-02 1.253701e-02 1.587824e-02 
    29.5                3.416553e-03 3.411628e-03 9.080404e-03 3.510219e-03 8.437253e-03 8.231090e-06 3.410697e-03 3.299835e-03 3.300141e-03 1.669695e-02 1.196298e-02 1.514395e-02 
    30.5                3.201614e-03 3.197740e-03 8.645806e-03 3.213620e-03 7.862450e-03 8.058148e-06 3.196905e-03 3.022726e-03 3.022895e-03 1.566790e-02 1.118108e-02 1.422439e-02 
    31.5                3.143289e-03 3.140380e-03 8.307595e-03 3.151237e-03 7.533633e-03 7.905069e-06 3.138630e-03 2.857774e-03 2.857972e-03 1.512603e-02 1.082284e-02 1.376528e-02 
    32.5                3.025730e-03 3.020516e-03 7.592450e-03 3.197122e-03 7.157743e-03 7.829304e-06 3.022045e-03 2.618815e-03 2.619071e-03 1.432511e-02 1.035726e-02 1.302066e-02 
    33.5                3.005329e-03 3.003050e-03 7.210773e-03 3.204880e-03 6.854373e-03 7.525878e-06 3.002307e-03 2.402395e-03 2.402600e-03 1.383392e-02 1.007802e-02 1.265423e-02 
    34.5                3.048782e-03 3.046660e-03 7.181662e-03 3.248886e-03 6.935981e-03 7.625429e-06 3.046536e-03 2.290365e-03 2.290449e-03 1.390112e-02 1.020874e-02 1.269288e-02 
    35.5                2.921873e-03 2.916622e-03 6.364454e-03 3.247553e-03 6.495491e-03 7.403234e-06 2.919808e-03 2.148354e-03 2.148162e-03 1.293191e-02 9.680872e-03 1.182395e-02 
    36.5                2.925450e-03 2.923124e-03 6.146127e-03 3.219568e-03 6.258967e-03 7.133840e-06 2.923168e-03 2.007499e-03 2.007592e-03 1.258592e-02 9.497074e-03 1.161505e-02 
    37.5                2.966445e-03 2.962038e-03 6.054944e-03 3.373818e-03 6.449674e-03 7.133204e-06 2.966177e-03 1.928772e-03 1.928604e-03 1.277776e-02 9.715968e-03 1.171815e-02 
    38.5                2.973936e-03 2.973149e-03 5.655294e-03 3.302786e-03 6.195369e-03 6.948997e-06 2.972744e-03 1.823628e-03 1.823553e-03 1.221161e-02 9.544211e-03 1.133442e-02 
    39.5                3.183982e-03 3.182089e-03 5.532012e-03 3.600717e-03 6.533985e-03 7.064851e-06 3.184091e-03 1.787995e-03 1.787677e-03 1.265139e-02 1.012870e-02 1.176588e-02 
    40.5                3.110676e-03 3.110300e-03 5.288514e-03 3.579694e-03 6.382111e-03 6.798944e-06 3.110399e-03 1.711026e-03 1.711029e-03 1.232817e-02 9.906838e-03 1.144247e-02 
    41.5                3.198778e-03 3.196853e-03 5.040567e-03 3.663533e-03 6.369786e-03 6.824346e-06 3.198292e-03 1.634035e-03 1.633811e-03 1.219366e-02 1.005261e-02 1.142292e-02 
    42.5                3.448461e-03 3.448176e-03 4.716817e-03 4.020689e-03 6.761135e-03 6.493016e-06 3.447655e-03 1.666333e-03 1.666139e-03 1.254364e-02 1.074869e-02 1.182860e-02 
    43.5                3.324278e-03 3.321177e-03 4.259892e-03 3.904365e-03 6.492510e-03 6.076634e-06 3.324218e-03 1.583387e-03 1.582974e-03 1.188063e-02 1.035520e-02 1.121273e-02 
    44.5                3.616031e-03 3.616987e-03 4.263169e-03 4.062389e-03 6.764887e-03 6.350149e-06 3.613556e-03 1.604546e-03 1.604174e-03 1.224114e-02 1.103367e-02 1.177313e-02 
    45.5                3.829763e-03 3.826038e-03 4.125135e-03 4.470331e-03 7.328586e-03 6.298207e-06 3.829622e-03 1.667588e-03 1.667420e-03 1.293547e-02 1.180751e-02 1.231612e-02 
    46.5                3.811380e-03 3.813826e-03 3.917189e-03 4.381004e-03 7.155041e-03 6.096034e-06 3.811817e-03 1.593295e-03 1.592931e-03 1.256897e-02 1.165552e-02 1.206639e-02 
    47.5                3.959631e-03 3.954392e-03 3.717375e-03 4.532657e-03 7.357748e-03 5.918142e-06 3.958023e-03 1.581847e-03 1.581468e-03 1.267870e-02 1.203882e-02 1.228270e-02 
    48.5                4.120525e-03 4.121497e-03 3.478157e-03 4.599354e-03 7.461024e-03 5.935432e-06 4.118822e-03 1.636418e-03 1.635905e-03 1.261863e-02 1.240792e-02 1.243667e-02 
    49.5                4.538690e-03 4.540857e-03 3.377733e-03 5.012265e-03 8.176301e-03 6.020157e-06 4.538343e-03 1.676173e-03 1.675462e-03 1.344631e-02 1.361219e-02 1.335835e-02 
    50.5                4.900027e-03 4.901933e-03 3.311371e-03 5.304694e-03 8.651895e-03 6.278497e-06 4.898399e-03 1.744252e-03 1.743833e-03 1.402582e-02 1.458311e-02 1.413028e-02 
    51.5                5.639344e-03 5.639809e-03 3.178484e-03 5.956175e-03 9.769699e-03 6.733321e-06 5.636411e-03 1.843605e-03 1.843226e-03 1.533603e-02 1.663660e-02 1.576568e-02 
    52.5                6.178072e-03 6.182398e-03 2.921683e-03 6.608402e-03 1.087577e-02 6.745468e-06 6.177063e-03 1.913812e-03 1.912809e-03 1.648957e-02 1.834172e-02 1.699192e-02 
    53.5                6.248270e-03 6.248104e-03 2.631444e-03 6.648921e-03 1.101842e-02 6.580672e-06 6.247564e-03 1.943545e-03 1.943193e-03 1.635424e-02 1.856778e-02 1.696161e-02 
    54.5                6.366825e-03 6.360448e-03 2.395397e-03 6.726717e-03 1.116763e-02 6.364711e-06 6.367117e-03 1.946531e-03 1.946526e-03 1.631342e-02 1.885687e-02 1.706506e-02 
    55.5                6.111488e-03 6.107761e-03 2.142829e-03 6.598964e-03 1.099131e-02 6.003369e-06 6.110357e-03 1.911191e-03 1.910431e-03 1.583777e-02 1.831568e-02 1.638703e-02 
    56.5                6.103095e-03 6.099872e-03 2.010597e-03 6.428727e-03 1.074792e-02 5.865376e-06 6.101609e-03 1.884734e-03 1.884383e-03 1.538385e-02 1.810303e-02 1.616323e-02 
    57.5                5.765009e-03 5.759537e-03 1.763533e-03 6.169920e-03 1.030640e-02 5.384459e-06 5.764659e-03 1.826933e-03 1.826463e-03 1.461660e-02 1.722296e-02 1.526721e-02 
    58.5                5.310653e-03 5.310951e-03 1.491712e-03 5.637118e-03 9.457193e-03 4.920639e-06 5.311212e-03 1.698718e-03 1.698205e-03 1.327636e-02 1.584672e-02 1.396108e-02 
    59.5                5.068977e-03 5.065682e-03 1.327778e-03 5.305320e-03 8.928119e-03 4.638067e-06 5.067831e-03 1.569016e-03 1.568684e-03 1.244379e-02 1.503897e-02 1.320587e-02 
    60.5                4.844150e-03 4.836692e-03 1.140683e-03 5.101651e-03 8.592063e-03 4.258262e-06 4.844250e-03 1.426211e-03 1.426090e-03 1.185604e-02 1.441017e-02 1.257650e-02 
    61.5                4.387292e-03 4.387021e-03 9.481026e-04 4.592989e-03 7.766317e-03 3.837057e-06 4.386861e-03 1.256518e-03 1.256194e-03 1.060360e-02 1.305388e-02 1.133044e-02 
    62.5                3.902798e-03 3.897041e-03 7.080570e-04 4.207903e-03 7.131805e-03 3.157487e-06 3.903451e-03 1.095313e-03 1.094997e-03 9.567625e-03 1.176308e-02 1.008719e-02 
    63.5                3.189940e-03 3.182674e-03 5.470977e-04 3.423769e-03 5.820832e-03 2.565507e-06 3.190598e-03 9.134568e-04 9.134140e-04 7.750183e-03 9.605788e-03 8.206462e-03 
    64.5                2.617115e-03 2.615103e-03 4.094830e-04 2.812050e-03 4.786455e-03 2.069488e-06 2.617937e-03 7.413042e-04 7.410832e-04 6.335069e-03 7.893190e-03 6.721646e-03 
    65.5                2.071981e-03 2.070280e-03 2.954519e-04 2.227165e-03 3.797142e-03 1.623761e-06 2.072865e-03 5.703145e-04 5.701813e-04 4.988515e-03 6.255669e-03 5.306692e-03 
    66.5                1.627562e-03 1.623136e-03 2.003600e-04 1.777098e-03 3.037161e-03 1.207155e-06 1.628507e-03 4.251498e-04 4.250426e-04 3.941668e-03 4.948529e-03 4.166096e-03 
    67.5                1.169675e-03 1.164947e-03 1.222698e-04 1.299032e-03 2.222763e-03 8.196233e-07 1.170571e-03 2.900232e-04 2.900147e-04 2.852937e-03 3.584159e-03 2.995833e-03 
    68.5                7.629084e-04 7.605945e-04 6.483566e-05 8.691245e-04 1.490624e-03 5.062561e-07 7.637441e-04 1.772025e-04 1.771270e-04 1.886747e-03 2.369410e-03 1.961136e-03 
    69.5                4.480184e-04 4.463671e-04 2.763162e-05 5.283851e-04 9.081733e-04 2.578679e-07 4.488987e-04 9.331378e-05 9.330100e-05 1.130976e-03 1.413546e-03 1.156704e-03 
    70.5                2.112682e-04 2.105116e-04 8.402858e-06 2.631825e-04 4.536958e-04 1.019756e-07 2.117834e-04 3.924532e-05 3.922548e-05 5.545222e-04 6.852518e-04 5.516654e-04 
    71.5                6.403229e-05 6.367791e-05 1.082618e-06 9.421749e-05 1.629913e-04 2.017159e-08 6.434364e-05 1.078991e-05 1.078728e-05 1.947341e-04 2.268199e-04 1.755113e-04 
    72.5                9.643689e-06 9.561128e-06 3.312016e-08 1.637115e-05 2.839238e-05 1.815223e-09 9.726689e-06 1.610472e-06 1.611771e-06 3.331081e-05 3.726231e-05 2.781033e-05 
    73.5                5.001681e-07 4.929164e-07 0.000000e+00 1.243678e-06 2.157955e-06 0.000000e+00 5.084098e-07 6.730276e-08 6.733464e-08 2.499135e-06 2.479515e-06 1.702618e-06 
    74.5                0.000000e+00 0.000000e+00 0.000000e+00 0.000000e+00 0.000000e+00 0.000000e+00 0.000000e+00 0.000000e+00 0.000000e+00 0.000000e+00 0.000000e+00 0.000000e+00 
    75.5                0.000000e+00 0.000000e+00 0.000000e+00 0.000000e+00 0.000000e+00 0.000000e+00 0.000000e+00 0.000000e+00 0.000000e+00 0.000000e+00 0.000000e+00 0.000000e+00 
    76.5                0.000000e+00 0.000000e+00 0.000000e+00 0.000000e+00 0.000000e+00 0.000000e+00 0.000000e+00 0.000000e+00 0.000000e+00 0.000000e+00 0.000000e+00 0.000000e+00 
    77.5                0.000000e+00 0.000000e+00 0.000000e+00 0.000000e+00 0.000000e+00 0.000000e+00 0.000000e+00 0.000000e+00 0.000000e+00 0.000000e+00 0.000000e+00 0.000000e+00 
    78.5                0.000000e+00 0.000000e+00 0.000000e+00 0.000000e+00 0.000000e+00 0.000000e+00 0.000000e+00 0.000000e+00 0.000000e+00 0.000000e+00 0.000000e+00 0.000000e+00 
    79.5                0.000000e+00 0.000000e+00 0.000000e+00 0.000000e+00 0.000000e+00 0.000000e+00 0.000000e+00 0.000000e+00 0.000000e+00 0.000000e+00 0.000000e+00 0.000000e+00 


