# 80 rows of flux data
# 12 columns of flux data
# 
# total cross-sectional flux  2.157529e+00 /m^2/yr
#
#                             +x ram      -x wake      +y port -y starboard    +z zenith     -z nadir        Earth          Sun     anti-Sun      rot (x)      rot (y)      rot (z) 
# average speed (km/s)         23.83        24.66        17.68        23.54        24.22        23.59        24.29        24.67        24.68        23.63        24.25        23.86 
# total flux (#/m2/yr)  6.126789e-01 7.176481e-01 1.127007e-01 4.983265e-01 1.220536e+00 5.292044e-04 1.275329e+00 9.357384e-01 9.492508e-01 1.446858e+00 2.011930e+00 1.577761e+00 
# velocity (km/s)
     0.5                0.000000e+00 0.000000e+00 0.000000e+00 0.000000e+00 0.000000e+00 0.000000e+00 0.000000e+00 0.000000e+00 0.000000e+00 0.000000e+00 0.000000e+00 0.000000e+00 
     1.5                0.000000e+00 0.000000e+00 0.000000e+00 0.000000e+00 0.000000e+00 0.000000e+00 0.000000e+00 0.000000e+00 0.000000e+00 0.000000e+00 0.000000e+00 0.000000e+00 
     2.5                4.983136e-06 0.000000e+00 4.320659e-07 5.120736e-07 2.367594e-06 1.385323e-09 2.270408e-06 1.317609e-07 2.001134e-06 2.726463e-06 5.739672e-06 5.127608e-06 
     3.5                1.184937e-04 3.198721e-06 1.677250e-05 3.610016e-05 1.004990e-04 4.263488e-08 1.019341e-04 2.149146e-05 5.727134e-05 1.224348e-04 1.754862e-04 1.406950e-04 
     4.5                5.418889e-04 1.215375e-04 1.061172e-04 2.387248e-04 5.863989e-04 2.616770e-07 6.013292e-04 1.690987e-04 2.943088e-04 7.383541e-04 9.851087e-04 8.034193e-04 
     5.5                1.476986e-03 5.737346e-04 3.948118e-04 8.631624e-04 1.975443e-03 8.332082e-07 2.035369e-03 7.186745e-04 9.653785e-04 2.555361e-03 3.176302e-03 2.612127e-03 
     6.5                2.768429e-03 1.918253e-03 9.166108e-04 1.995520e-03 4.410176e-03 1.983126e-06 4.554012e-03 1.848600e-03 2.185301e-03 5.771189e-03 7.174150e-03 5.992734e-03 
     7.5                4.912975e-03 3.578691e-03 1.770897e-03 3.653132e-03 7.856128e-03 3.771365e-06 8.106743e-03 3.648813e-03 3.963027e-03 1.046361e-02 1.289397e-02 1.096141e-02 
     8.5                7.314372e-03 6.051071e-03 2.727576e-03 5.852848e-03 1.260506e-02 5.873027e-06 1.302981e-02 6.227556e-03 6.364965e-03 1.669316e-02 2.047829e-02 1.726043e-02 
     9.5                9.315979e-03 9.234982e-03 3.860205e-03 8.223096e-03 1.758476e-02 8.242045e-06 1.817197e-02 9.315148e-03 9.311692e-03 2.338245e-02 2.849942e-02 2.410495e-02 
    10.5                1.133401e-02 1.248032e-02 5.190306e-03 1.049666e-02 2.199357e-02 1.098569e-05 2.267865e-02 1.272598e-02 1.275601e-02 2.966805e-02 3.613570e-02 3.107120e-02 
    11.5                1.300645e-02 1.472056e-02 6.311275e-03 1.242621e-02 2.591652e-02 1.298405e-05 2.666926e-02 1.607135e-02 1.618060e-02 3.515816e-02 4.231981e-02 3.655625e-02 
    12.5                1.425862e-02 1.689598e-02 7.097966e-03 1.373946e-02 2.877783e-02 1.494972e-05 2.955671e-02 1.908162e-02 1.923103e-02 3.910159e-02 4.728439e-02 4.096505e-02 
    13.5                1.618700e-02 1.817178e-02 7.558239e-03 1.492740e-02 3.162486e-02 1.646571e-05 3.247653e-02 2.199806e-02 2.218261e-02 4.268087e-02 5.204549e-02 4.492167e-02 
    14.5                1.786033e-02 1.982789e-02 7.639078e-03 1.614050e-02 3.492300e-02 1.762533e-05 3.592585e-02 2.508320e-02 2.532571e-02 4.633889e-02 5.727509e-02 4.872916e-02 
    15.5                1.939753e-02 2.152444e-02 7.422407e-03 1.708185e-02 3.791150e-02 1.860846e-05 3.908100e-02 2.801571e-02 2.830626e-02 4.931100e-02 6.218713e-02 5.205952e-02 
    16.5                2.078581e-02 2.336004e-02 7.160192e-03 1.805418e-02 4.076375e-02 1.951319e-05 4.212661e-02 3.078344e-02 3.111564e-02 5.214125e-02 6.696784e-02 5.539055e-02 
    17.5                2.212469e-02 2.468495e-02 6.688700e-03 1.876188e-02 4.308402e-02 2.015863e-05 4.464117e-02 3.325375e-02 3.362016e-02 5.418620e-02 7.090372e-02 5.786815e-02 
    18.5                2.309126e-02 2.589115e-02 6.077552e-03 1.931436e-02 4.518645e-02 2.039355e-05 4.693931e-02 3.543752e-02 3.582677e-02 5.582445e-02 7.427576e-02 5.975161e-02 
    19.5                2.381839e-02 2.705664e-02 5.630346e-03 1.974277e-02 4.676330e-02 2.080220e-05 4.866390e-02 3.719302e-02 3.760672e-02 5.707015e-02 7.701375e-02 6.143706e-02 
    20.5                2.447898e-02 2.765750e-02 5.127288e-03 1.989092e-02 4.780389e-02 2.097083e-05 4.981727e-02 3.839921e-02 3.884029e-02 5.763091e-02 7.882830e-02 6.234775e-02 
    21.5                2.547795e-02 2.810881e-02 4.543224e-03 2.020072e-02 4.911488e-02 2.117814e-05 5.129787e-02 3.971255e-02 4.019129e-02 5.845763e-02 8.100402e-02 6.345364e-02 
    22.5                2.610010e-02 2.900124e-02 4.200053e-03 2.058250e-02 5.065862e-02 2.145687e-05 5.295941e-02 4.107782e-02 4.159449e-02 5.972486e-02 8.341613e-02 6.488544e-02 
    23.5                2.633747e-02 2.976246e-02 3.684686e-03 2.065681e-02 5.141576e-02 2.155988e-05 5.383447e-02 4.185056e-02 4.239604e-02 5.999122e-02 8.479686e-02 6.550749e-02 
    24.5                2.646590e-02 2.991880e-02 3.242240e-03 2.052325e-02 5.161892e-02 2.149334e-05 5.410551e-02 4.206776e-02 4.264199e-02 5.970380e-02 8.518232e-02 6.543451e-02 
    25.5                2.634422e-02 2.996744e-02 2.779253e-03 2.028859e-02 5.157837e-02 2.124153e-05 5.412435e-02 4.199259e-02 4.259026e-02 5.911887e-02 8.509173e-02 6.497777e-02 
    26.5                2.568094e-02 2.983127e-02 2.393761e-03 1.981329e-02 5.085155e-02 2.077679e-05 5.340178e-02 4.135249e-02 4.195905e-02 5.784962e-02 8.388882e-02 6.376154e-02 
    27.5                2.502612e-02 2.920840e-02 2.034073e-03 1.913245e-02 4.949319e-02 2.022782e-05 5.201204e-02 4.024406e-02 4.085037e-02 5.593420e-02 8.181098e-02 6.201206e-02 
    28.5                2.418354e-02 2.826637e-02 1.733665e-03 1.840932e-02 4.799056e-02 1.943920e-05 5.046105e-02 3.885442e-02 3.945538e-02 5.391700e-02 7.921394e-02 5.980430e-02 
    29.5                2.305984e-02 2.738471e-02 1.434647e-03 1.756436e-02 4.610356e-02 1.858812e-05 4.850699e-02 3.721428e-02 3.780576e-02 5.149899e-02 7.614180e-02 5.732537e-02 
    30.5                2.180734e-02 2.612655e-02 1.178306e-03 1.657276e-02 4.378444e-02 1.760572e-05 4.609083e-02 3.520358e-02 3.577467e-02 4.865426e-02 7.233539e-02 5.431756e-02 
    31.5                2.034277e-02 2.473186e-02 9.391415e-04 1.548680e-02 4.116610e-02 1.648870e-05 4.335757e-02 3.292804e-02 3.347317e-02 4.550284e-02 6.801602e-02 5.094413e-02 
    32.5                1.865605e-02 2.312971e-02 7.436639e-04 1.428714e-02 3.817288e-02 1.523244e-05 4.022481e-02 3.033682e-02 3.084770e-02 4.200137e-02 6.306166e-02 4.712838e-02 
    33.5                1.675935e-02 2.134562e-02 5.829507e-04 1.295855e-02 3.476526e-02 1.386536e-05 3.664988e-02 2.745551e-02 2.792283e-02 3.810643e-02 5.747081e-02 4.289591e-02 
    34.5                1.486235e-02 1.927443e-02 4.515577e-04 1.155704e-02 3.111374e-02 1.240472e-05 3.281394e-02 2.440836e-02 2.482794e-02 3.398985e-02 5.146206e-02 3.836965e-02 
    35.5                1.297275e-02 1.717017e-02 3.402993e-04 1.015827e-02 2.743704e-02 1.094883e-05 2.894714e-02 2.137319e-02 2.174501e-02 2.987443e-02 4.541348e-02 3.382790e-02 
    36.5                1.114043e-02 1.503878e-02 2.448396e-04 8.795335e-03 2.383215e-02 9.474288e-06 2.515511e-02 1.840570e-02 1.872745e-02 2.586141e-02 3.944293e-02 2.934057e-02 
    37.5                9.362459e-03 1.300036e-02 1.735036e-04 7.485357e-03 2.033661e-02 8.084934e-06 2.147379e-02 1.557051e-02 1.584527e-02 2.200372e-02 3.367521e-02 2.503135e-02 
    38.5                7.612724e-03 1.100113e-02 1.182859e-04 6.219125e-03 1.693651e-02 6.720130e-06 1.789067e-02 1.284247e-02 1.306902e-02 1.827612e-02 2.803798e-02 2.081751e-02 
    39.5                5.919256e-03 9.086989e-03 7.757211e-05 4.992560e-03 1.362283e-02 5.416992e-06 1.439613e-02 1.023706e-02 1.041523e-02 1.466640e-02 2.257885e-02 1.676268e-02 
    40.5                4.376615e-03 7.200558e-03 4.840450e-05 3.831843e-03 1.047324e-02 4.189310e-06 1.107204e-02 7.800909e-03 7.934872e-03 1.125272e-02 1.739205e-02 1.291684e-02 
    41.5                3.088614e-03 5.445463e-03 2.863651e-05 2.802241e-03 7.669718e-03 3.102639e-06 8.111127e-03 5.671132e-03 5.765527e-03 8.226173e-03 1.278141e-02 9.506483e-03 
    42.5                2.062519e-03 3.910474e-03 1.602384e-05 1.954069e-03 5.354564e-03 2.174748e-06 5.664873e-03 3.921092e-03 3.984963e-03 5.734394e-03 8.935763e-03 6.648177e-03 
    43.5                1.236061e-03 2.688926e-03 8.385102e-06 1.277292e-03 3.503531e-03 1.435498e-06 3.707969e-03 2.542603e-03 2.582358e-03 3.747425e-03 5.860357e-03 4.364296e-03 
    44.5                6.435497e-04 1.705547e-03 4.086394e-06 7.501437e-04 2.059156e-03 8.724160e-07 2.180195e-03 1.492493e-03 1.513299e-03 2.200482e-03 3.478162e-03 2.603883e-03 
    45.5                2.673615e-04 9.513511e-04 1.738452e-06 3.794174e-04 1.042179e-03 4.611235e-07 1.103946e-03 7.576976e-04 7.663608e-04 1.112919e-03 1.784239e-03 1.345444e-03 
    46.5                7.855133e-05 4.437068e-04 6.435426e-07 1.530876e-04 4.207230e-04 2.071445e-07 4.458601e-04 3.130595e-04 3.156227e-04 4.491190e-04 7.446477e-04 5.714268e-04 
    47.5                1.541956e-05 1.524158e-04 1.931748e-07 4.489564e-05 1.234181e-04 7.168067e-08 1.308561e-04 9.610364e-05 9.617810e-05 1.317438e-04 2.304567e-04 1.814304e-04 
    48.5                1.403964e-06 3.667607e-05 4.019586e-08 9.011110e-06 2.478132e-05 1.749272e-08 2.629232e-05 2.058734e-05 2.046853e-05 2.645414e-05 4.980407e-05 4.052822e-05 
    49.5                1.253688e-08 5.083895e-06 5.459476e-09 9.613484e-07 2.644905e-06 2.609531e-09 2.809954e-06 2.526884e-06 2.483083e-06 2.825597e-06 6.142829e-06 5.290040e-06 
    50.5                0.000000e+00 1.462989e-07 1.878958e-10 1.795014e-08 4.929923e-08 1.018770e-10 5.266063e-08 6.548578e-08 6.210634e-08 5.283948e-08 1.583598e-07 1.480596e-07 
    51.5                0.000000e+00 0.000000e+00 0.000000e+00 0.000000e+00 0.000000e+00 0.000000e+00 0.000000e+00 0.000000e+00 0.000000e+00 0.000000e+00 0.000000e+00 0.000000e+00 
    52.5                0.000000e+00 0.000000e+00 0.000000e+00 0.000000e+00 0.000000e+00 0.000000e+00 0.000000e+00 0.000000e+00 0.000000e+00 0.000000e+00 0.000000e+00 0.000000e+00 
    53.5                0.000000e+00 0.000000e+00 0.000000e+00 0.000000e+00 0.000000e+00 0.000000e+00 0.000000e+00 0.000000e+00 0.000000e+00 0.000000e+00 0.000000e+00 0.000000e+00 
    54.5                0.000000e+00 0.000000e+00 0.000000e+00 0.000000e+00 0.000000e+00 0.000000e+00 0.000000e+00 0.000000e+00 0.000000e+00 0.000000e+00 0.000000e+00 0.000000e+00 
    55.5                0.000000e+00 0.000000e+00 0.000000e+00 0.000000e+00 0.000000e+00 0.000000e+00 0.000000e+00 0.000000e+00 0.000000e+00 0.000000e+00 0.000000e+00 0.000000e+00 
    56.5                0.000000e+00 0.000000e+00 0.000000e+00 0.000000e+00 0.000000e+00 0.000000e+00 0.000000e+00 0.000000e+00 0.000000e+00 0.000000e+00 0.000000e+00 0.000000e+00 
    57.5                0.000000e+00 0.000000e+00 0.000000e+00 0.000000e+00 0.000000e+00 0.000000e+00 0.000000e+00 0.000000e+00 0.000000e+00 0.000000e+00 0.000000e+00 0.000000e+00 
    58.5                0.000000e+00 0.000000e+00 0.000000e+00 0.000000e+00 0.000000e+00 0.000000e+00 0.000000e+00 0.000000e+00 0.000000e+00 0.000000e+00 0.000000e+00 0.000000e+00 
    59.5                0.000000e+00 0.000000e+00 0.000000e+00 0.000000e+00 0.000000e+00 0.000000e+00 0.000000e+00 0.000000e+00 0.000000e+00 0.000000e+00 0.000000e+00 0.000000e+00 
    60.5                0.000000e+00 0.000000e+00 0.000000e+00 0.000000e+00 0.000000e+00 0.000000e+00 0.000000e+00 0.000000e+00 0.000000e+00 0.000000e+00 0.000000e+00 0.000000e+00 
    61.5                0.000000e+00 0.000000e+00 0.000000e+00 0.000000e+00 0.000000e+00 0.000000e+00 0.000000e+00 0.000000e+00 0.000000e+00 0.000000e+00 0.000000e+00 0.000000e+00 
    62.5                0.000000e+00 0.000000e+00 0.000000e+00 0.000000e+00 0.000000e+00 0.000000e+00 0.000000e+00 0.000000e+00 0.000000e+00 0.000000e+00 0.000000e+00 0.000000e+00 
    63.5                0.000000e+00 0.000000e+00 0.000000e+00 0.000000e+00 0.000000e+00 0.000000e+00 0.000000e+00 0.000000e+00 0.000000e+00 0.000000e+00 0.000000e+00 0.000000e+00 
    64.5                0.000000e+00 0.000000e+00 0.000000e+00 0.000000e+00 0.000000e+00 0.000000e+00 0.000000e+00 0.000000e+00 0.000000e+00 0.000000e+00 0.000000e+00 0.000000e+00 
    65.5                0.000000e+00 0.000000e+00 0.000000e+00 0.000000e+00 0.000000e+00 0.000000e+00 0.000000e+00 0.000000e+00 0.000000e+00 0.000000e+00 0.000000e+00 0.000000e+00 
    66.5                0.000000e+00 0.000000e+00 0.000000e+00 0.000000e+00 0.000000e+00 0.000000e+00 0.000000e+00 0.000000e+00 0.000000e+00 0.000000e+00 0.000000e+00 0.000000e+00 
    67.5                0.000000e+00 0.000000e+00 0.000000e+00 0.000000e+00 0.000000e+00 0.000000e+00 0.000000e+00 0.000000e+00 0.000000e+00 0.000000e+00 0.000000e+00 0.000000e+00 
    68.5                0.000000e+00 0.000000e+00 0.000000e+00 0.000000e+00 0.000000e+00 0.000000e+00 0.000000e+00 0.000000e+00 0.000000e+00 0.000000e+00 0.000000e+00 0.000000e+00 
    69.5                0.000000e+00 0.000000e+00 0.000000e+00 0.000000e+00 0.000000e+00 0.000000e+00 0.000000e+00 0.000000e+00 0.000000e+00 0.000000e+00 0.000000e+00 0.000000e+00 
    70.5                0.000000e+00 0.000000e+00 0.000000e+00 0.000000e+00 0.000000e+00 0.000000e+00 0.000000e+00 0.000000e+00 0.000000e+00 0.000000e+00 0.000000e+00 0.000000e+00 
    71.5                0.000000e+00 0.000000e+00 0.000000e+00 0.000000e+00 0.000000e+00 0.000000e+00 0.000000e+00 0.000000e+00 0.000000e+00 0.000000e+00 0.000000e+00 0.000000e+00 
    72.5                0.000000e+00 0.000000e+00 0.000000e+00 0.000000e+00 0.000000e+00 0.000000e+00 0.000000e+00 0.000000e+00 0.000000e+00 0.000000e+00 0.000000e+00 0.000000e+00 
    73.5                0.000000e+00 0.000000e+00 0.000000e+00 0.000000e+00 0.000000e+00 0.000000e+00 0.000000e+00 0.000000e+00 0.000000e+00 0.000000e+00 0.000000e+00 0.000000e+00 
    74.5                0.000000e+00 0.000000e+00 0.000000e+00 0.000000e+00 0.000000e+00 0.000000e+00 0.000000e+00 0.000000e+00 0.000000e+00 0.000000e+00 0.000000e+00 0.000000e+00 
    75.5                0.000000e+00 0.000000e+00 0.000000e+00 0.000000e+00 0.000000e+00 0.000000e+00 0.000000e+00 0.000000e+00 0.000000e+00 0.000000e+00 0.000000e+00 0.000000e+00 
    76.5                0.000000e+00 0.000000e+00 0.000000e+00 0.000000e+00 0.000000e+00 0.000000e+00 0.000000e+00 0.000000e+00 0.000000e+00 0.000000e+00 0.000000e+00 0.000000e+00 
    77.5                0.000000e+00 0.000000e+00 0.000000e+00 0.000000e+00 0.000000e+00 0.000000e+00 0.000000e+00 0.000000e+00 0.000000e+00 0.000000e+00 0.000000e+00 0.000000e+00 
    78.5                0.000000e+00 0.000000e+00 0.000000e+00 0.000000e+00 0.000000e+00 0.000000e+00 0.000000e+00 0.000000e+00 0.000000e+00 0.000000e+00 0.000000e+00 0.000000e+00 
    79.5                0.000000e+00 0.000000e+00 0.000000e+00 0.000000e+00 0.000000e+00 0.000000e+00 0.000000e+00 0.000000e+00 0.000000e+00 0.000000e+00 0.000000e+00 0.000000e+00 


