# 80 rows of flux data
# 12 columns of flux data
# 
# total cross-sectional flux  2.027690e+00 /m^2/yr
#
#                             +x ram      -x wake      +y port -y starboard    +z zenith     -z nadir        Earth          Sun     anti-Sun      rot (x)      rot (y)      rot (z) 
# average speed (km/s)         23.99        23.99        17.37        23.46        23.76        23.49        23.99        24.29        24.29        23.19        23.89        23.60 
# total flux (#/m2/yr)  6.327011e-01 6.322382e-01 1.039374e-01 5.356653e-01 1.093309e+00 5.502928e-04 6.260749e-01 8.875496e-01 8.872398e-01 1.344871e+00 1.863115e+00 1.536687e+00 
# velocity (km/s)
     0.5                0.000000e+00 0.000000e+00 0.000000e+00 0.000000e+00 0.000000e+00 0.000000e+00 0.000000e+00 0.000000e+00 0.000000e+00 0.000000e+00 0.000000e+00 0.000000e+00 
     1.5                0.000000e+00 0.000000e+00 0.000000e+00 0.000000e+00 0.000000e+00 0.000000e+00 0.000000e+00 0.000000e+00 0.000000e+00 0.000000e+00 0.000000e+00 0.000000e+00 
     2.5                9.248674e-07 9.693513e-07 1.368699e-08 1.912168e-06 5.490450e-06 0.000000e+00 9.639450e-07 7.306214e-07 7.165483e-07 5.877820e-06 5.952938e-06 2.926545e-06 
     3.5                7.526986e-05 7.650481e-05 9.963346e-06 7.690870e-05 1.869326e-04 1.936751e-08 7.610791e-05 5.707218e-05 5.698644e-05 2.157542e-04 2.642485e-04 1.923546e-04 
     4.5                4.110951e-04 4.140089e-04 9.745967e-05 4.344140e-04 9.160280e-04 1.980558e-07 4.114898e-04 3.272324e-04 3.268368e-04 1.137248e-03 1.365255e-03 1.080120e-03 
     5.5                1.309719e-03 1.313525e-03 4.246197e-04 1.327119e-03 2.598629e-03 8.977426e-07 1.306490e-03 1.141650e-03 1.140070e-03 3.416165e-03 4.104770e-03 3.459067e-03 
     6.5                2.596337e-03 2.598628e-03 9.644375e-04 2.577521e-03 4.938117e-03 2.146071e-06 2.584541e-03 2.360049e-03 2.357847e-03 6.661107e-03 7.987318e-03 6.874695e-03 
     7.5                4.598055e-03 4.601760e-03 1.802112e-03 4.620595e-03 8.804449e-03 3.916500e-06 4.577725e-03 4.298290e-03 4.295501e-03 1.196587e-02 1.418045e-02 1.229256e-02 
     8.5                7.180393e-03 7.181790e-03 2.720069e-03 6.901793e-03 1.317454e-02 6.404523e-06 7.143299e-03 6.884800e-03 6.882574e-03 1.794495e-02 2.170538e-02 1.889104e-02 
     9.5                9.462216e-03 9.460506e-03 3.921997e-03 9.025501e-03 1.686365e-02 9.278936e-06 9.404240e-03 9.784875e-03 9.781538e-03 2.346324e-02 2.826519e-02 2.505928e-02 
    10.5                1.148964e-02 1.148496e-02 5.086708e-03 1.100893e-02 2.057594e-02 1.167827e-05 1.140660e-02 1.297254e-02 1.296888e-02 2.885986e-02 3.439112e-02 3.068051e-02 
    11.5                1.346276e-02 1.345130e-02 6.176205e-03 1.258034e-02 2.372754e-02 1.404153e-05 1.335367e-02 1.598797e-02 1.598238e-02 3.343465e-02 3.999616e-02 3.587989e-02 
    12.5                1.470497e-02 1.469288e-02 6.694925e-03 1.366260e-02 2.601135e-02 1.575336e-05 1.457421e-02 1.851994e-02 1.851412e-02 3.648139e-02 4.378327e-02 3.918744e-02 
    13.5                1.650303e-02 1.649648e-02 7.125076e-03 1.527526e-02 2.947358e-02 1.721381e-05 1.635499e-02 2.162937e-02 2.162121e-02 4.079851e-02 4.931051e-02 4.371193e-02 
    14.5                1.825447e-02 1.824389e-02 7.176315e-03 1.658734e-02 3.245654e-02 1.851740e-05 1.807869e-02 2.460708e-02 2.459928e-02 4.419217e-02 5.443750e-02 4.768474e-02 
    15.5                1.988554e-02 1.987254e-02 6.908433e-03 1.784371e-02 3.514083e-02 1.933046e-05 1.968568e-02 2.748115e-02 2.747259e-02 4.702159e-02 5.914345e-02 5.123874e-02 
    16.5                2.132308e-02 2.131112e-02 6.686586e-03 1.893298e-02 3.755376e-02 2.014186e-05 2.110436e-02 2.993139e-02 2.992061e-02 4.954313e-02 6.331084e-02 5.433838e-02 
    17.5                2.261365e-02 2.260274e-02 6.119842e-03 1.992932e-02 3.981684e-02 2.079687e-05 2.237537e-02 3.243092e-02 3.242030e-02 5.159867e-02 6.714200e-02 5.689013e-02 
    18.5                2.373070e-02 2.371213e-02 5.550188e-03 2.065770e-02 4.144524e-02 2.135048e-05 2.346974e-02 3.440096e-02 3.438853e-02 5.294251e-02 7.019882e-02 5.895295e-02 
    19.5                2.443708e-02 2.442283e-02 5.115025e-03 2.115056e-02 4.266654e-02 2.162494e-05 2.416896e-02 3.579298e-02 3.578064e-02 5.386784e-02 7.229060e-02 6.023829e-02 
    20.5                2.506386e-02 2.505239e-02 4.574186e-03 2.155105e-02 4.375374e-02 2.168651e-05 2.478669e-02 3.696139e-02 3.694879e-02 5.452430e-02 7.413463e-02 6.127946e-02 
    21.5                2.598684e-02 2.597487e-02 4.030457e-03 2.229238e-02 4.541797e-02 2.195082e-05 2.569563e-02 3.859279e-02 3.857900e-02 5.590062e-02 7.689205e-02 6.303656e-02 
    22.5                2.674477e-02 2.672968e-02 3.727909e-03 2.268372e-02 4.649626e-02 2.241987e-05 2.644235e-02 3.978322e-02 3.976994e-02 5.674909e-02 7.895369e-02 6.446522e-02 
    23.5                2.701658e-02 2.699981e-02 3.218979e-03 2.275909e-02 4.683374e-02 2.246131e-05 2.670857e-02 4.018492e-02 4.017164e-02 5.659439e-02 7.965324e-02 6.466766e-02 
    24.5                2.713824e-02 2.712279e-02 2.797927e-03 2.273508e-02 4.700295e-02 2.228554e-05 2.682980e-02 4.035846e-02 4.034437e-02 5.628699e-02 7.997995e-02 6.462505e-02 
    25.5                2.709271e-02 2.707527e-02 2.386338e-03 2.249880e-02 4.673772e-02 2.210001e-05 2.678426e-02 4.020273e-02 4.018891e-02 5.547925e-02 7.970413e-02 6.414770e-02 
    26.5                2.651489e-02 2.649503e-02 2.035852e-03 2.184301e-02 4.552681e-02 2.165361e-05 2.621221e-02 3.921105e-02 3.919754e-02 5.367306e-02 7.785374e-02 6.251551e-02 
    27.5                2.579085e-02 2.577369e-02 1.724173e-03 2.118563e-02 4.433594e-02 2.084938e-05 2.549862e-02 3.807778e-02 3.806523e-02 5.191198e-02 7.576175e-02 6.062703e-02 
    28.5                2.500271e-02 2.498424e-02 1.464170e-03 2.039967e-02 4.282356e-02 2.016682e-05 2.472044e-02 3.673098e-02 3.671789e-02 4.986002e-02 7.332573e-02 5.858849e-02 
    29.5                2.388651e-02 2.386789e-02 1.218861e-03 1.938652e-02 4.081210e-02 1.925255e-05 2.361791e-02 3.492873e-02 3.491619e-02 4.726126e-02 6.998138e-02 5.581242e-02 
    30.5                2.263573e-02 2.261775e-02 9.902769e-04 1.827484e-02 3.857862e-02 1.820719e-05 2.238379e-02 3.291171e-02 3.290141e-02 4.442892e-02 6.624676e-02 5.274714e-02 
    31.5                2.118023e-02 2.116117e-02 7.917345e-04 1.699844e-02 3.597285e-02 1.706650e-05 2.094518e-02 3.057327e-02 3.056235e-02 4.121280e-02 6.189580e-02 4.922552e-02 
    32.5                1.952090e-02 1.950176e-02 6.241284e-04 1.555344e-02 3.298020e-02 1.579169e-05 1.930672e-02 2.791657e-02 2.790720e-02 3.762036e-02 5.691868e-02 4.525332e-02 
    33.5                1.761179e-02 1.759334e-02 4.947781e-04 1.394850e-02 2.961901e-02 1.432288e-05 1.742041e-02 2.496176e-02 2.495224e-02 3.367275e-02 5.125400e-02 4.074699e-02 
    34.5                1.568109e-02 1.566304e-02 3.852229e-04 1.234958e-02 2.626178e-02 1.278066e-05 1.551218e-02 2.202503e-02 2.201726e-02 2.975499e-02 4.555358e-02 3.621091e-02 
    35.5                1.372720e-02 1.371114e-02 2.876619e-04 1.076033e-02 2.291578e-02 1.123422e-05 1.358142e-02 1.909464e-02 1.908759e-02 2.587202e-02 3.982839e-02 3.164858e-02 
    36.5                1.185540e-02 1.184005e-02 2.066934e-04 9.226490e-03 1.967514e-02 9.748039e-06 1.173104e-02 1.629899e-02 1.629366e-02 2.213848e-02 3.430758e-02 2.727226e-02 
    37.5                1.001288e-02 9.998533e-03 1.463978e-04 7.744173e-03 1.653234e-02 8.280791e-06 9.908544e-03 1.360855e-02 1.360386e-02 1.854915e-02 2.891462e-02 2.299400e-02 
    38.5                8.231211e-03 8.217682e-03 1.001053e-04 6.290086e-03 1.344110e-02 6.898575e-06 8.146317e-03 1.102014e-02 1.101602e-02 1.504292e-02 2.365992e-02 1.884943e-02 
    39.5                6.481870e-03 6.469857e-03 6.466459e-05 4.886690e-03 1.045115e-02 5.537072e-06 6.415860e-03 8.535098e-03 8.531882e-03 1.166992e-02 1.853561e-02 1.480014e-02 
    40.5                4.864093e-03 4.853699e-03 3.990678e-05 3.610578e-03 7.727599e-03 4.239930e-06 4.814978e-03 6.294752e-03 6.292603e-03 8.611910e-03 1.382707e-02 1.107151e-02 
    41.5                3.473119e-03 3.465092e-03 2.314295e-05 2.545991e-03 5.452705e-03 3.086061e-06 3.438454e-03 4.422250e-03 4.420369e-03 6.065720e-03 9.826903e-03 7.885895e-03 
    42.5                2.365275e-03 2.358896e-03 1.266262e-05 1.699347e-03 3.641608e-03 2.151309e-06 2.341739e-03 2.950541e-03 2.949667e-03 4.045073e-03 6.639855e-03 5.349971e-03 
    43.5                1.471395e-03 1.466524e-03 6.576875e-06 1.018267e-03 2.183178e-03 1.404862e-06 1.456645e-03 1.786074e-03 1.785204e-03 2.422525e-03 4.071846e-03 3.306394e-03 
    44.5                8.024926e-04 7.989604e-04 2.960460e-06 5.301509e-04 1.137173e-03 8.097112e-07 7.940726e-04 9.442356e-04 9.438203e-04 1.260726e-03 2.182132e-03 1.788907e-03 
    45.5                3.610882e-04 3.591227e-04 1.160139e-06 2.202617e-04 4.726752e-04 3.996614e-07 3.572328e-04 4.074445e-04 4.071092e-04 5.238242e-04 9.540995e-04 7.949798e-04 
    46.5                1.180352e-04 1.171771e-04 3.714936e-07 6.475436e-05 1.389985e-04 1.508871e-07 1.166581e-04 1.269037e-04 1.269287e-04 1.540635e-04 3.015588e-04 2.562261e-04 
    47.5                2.692830e-05 2.670937e-05 8.214924e-08 1.270877e-05 2.729106e-05 3.977938e-08 2.661049e-05 2.731517e-05 2.729669e-05 3.026199e-05 6.579083e-05 5.740729e-05 
    48.5                3.440913e-06 3.407430e-06 1.166539e-08 1.160315e-06 2.493487e-06 6.140249e-09 3.398050e-06 3.153392e-06 3.156446e-06 2.771748e-06 7.721174e-06 7.097501e-06 
    49.5                7.860827e-08 7.895445e-08 4.138211e-10 1.047105e-08 2.238514e-08 2.378846e-10 7.875478e-08 6.437481e-08 6.408788e-08 2.543142e-08 1.602165e-07 1.581667e-07 
    50.5                0.000000e+00 0.000000e+00 0.000000e+00 0.000000e+00 0.000000e+00 0.000000e+00 0.000000e+00 0.000000e+00 0.000000e+00 0.000000e+00 0.000000e+00 0.000000e+00 
    51.5                0.000000e+00 0.000000e+00 0.000000e+00 0.000000e+00 0.000000e+00 0.000000e+00 0.000000e+00 0.000000e+00 0.000000e+00 0.000000e+00 0.000000e+00 0.000000e+00 
    52.5                0.000000e+00 0.000000e+00 0.000000e+00 0.000000e+00 0.000000e+00 0.000000e+00 0.000000e+00 0.000000e+00 0.000000e+00 0.000000e+00 0.000000e+00 0.000000e+00 
    53.5                0.000000e+00 0.000000e+00 0.000000e+00 0.000000e+00 0.000000e+00 0.000000e+00 0.000000e+00 0.000000e+00 0.000000e+00 0.000000e+00 0.000000e+00 0.000000e+00 
    54.5                0.000000e+00 0.000000e+00 0.000000e+00 0.000000e+00 0.000000e+00 0.000000e+00 0.000000e+00 0.000000e+00 0.000000e+00 0.000000e+00 0.000000e+00 0.000000e+00 
    55.5                0.000000e+00 0.000000e+00 0.000000e+00 0.000000e+00 0.000000e+00 0.000000e+00 0.000000e+00 0.000000e+00 0.000000e+00 0.000000e+00 0.000000e+00 0.000000e+00 
    56.5                0.000000e+00 0.000000e+00 0.000000e+00 0.000000e+00 0.000000e+00 0.000000e+00 0.000000e+00 0.000000e+00 0.000000e+00 0.000000e+00 0.000000e+00 0.000000e+00 
    57.5                0.000000e+00 0.000000e+00 0.000000e+00 0.000000e+00 0.000000e+00 0.000000e+00 0.000000e+00 0.000000e+00 0.000000e+00 0.000000e+00 0.000000e+00 0.000000e+00 
    58.5                0.000000e+00 0.000000e+00 0.000000e+00 0.000000e+00 0.000000e+00 0.000000e+00 0.000000e+00 0.000000e+00 0.000000e+00 0.000000e+00 0.000000e+00 0.000000e+00 
    59.5                0.000000e+00 0.000000e+00 0.000000e+00 0.000000e+00 0.000000e+00 0.000000e+00 0.000000e+00 0.000000e+00 0.000000e+00 0.000000e+00 0.000000e+00 0.000000e+00 
    60.5                0.000000e+00 0.000000e+00 0.000000e+00 0.000000e+00 0.000000e+00 0.000000e+00 0.000000e+00 0.000000e+00 0.000000e+00 0.000000e+00 0.000000e+00 0.000000e+00 
    61.5                0.000000e+00 0.000000e+00 0.000000e+00 0.000000e+00 0.000000e+00 0.000000e+00 0.000000e+00 0.000000e+00 0.000000e+00 0.000000e+00 0.000000e+00 0.000000e+00 
    62.5                0.000000e+00 0.000000e+00 0.000000e+00 0.000000e+00 0.000000e+00 0.000000e+00 0.000000e+00 0.000000e+00 0.000000e+00 0.000000e+00 0.000000e+00 0.000000e+00 
    63.5                0.000000e+00 0.000000e+00 0.000000e+00 0.000000e+00 0.000000e+00 0.000000e+00 0.000000e+00 0.000000e+00 0.000000e+00 0.000000e+00 0.000000e+00 0.000000e+00 
    64.5                0.000000e+00 0.000000e+00 0.000000e+00 0.000000e+00 0.000000e+00 0.000000e+00 0.000000e+00 0.000000e+00 0.000000e+00 0.000000e+00 0.000000e+00 0.000000e+00 
    65.5                0.000000e+00 0.000000e+00 0.000000e+00 0.000000e+00 0.000000e+00 0.000000e+00 0.000000e+00 0.000000e+00 0.000000e+00 0.000000e+00 0.000000e+00 0.000000e+00 
    66.5                0.000000e+00 0.000000e+00 0.000000e+00 0.000000e+00 0.000000e+00 0.000000e+00 0.000000e+00 0.000000e+00 0.000000e+00 0.000000e+00 0.000000e+00 0.000000e+00 
    67.5                0.000000e+00 0.000000e+00 0.000000e+00 0.000000e+00 0.000000e+00 0.000000e+00 0.000000e+00 0.000000e+00 0.000000e+00 0.000000e+00 0.000000e+00 0.000000e+00 
    68.5                0.000000e+00 0.000000e+00 0.000000e+00 0.000000e+00 0.000000e+00 0.000000e+00 0.000000e+00 0.000000e+00 0.000000e+00 0.000000e+00 0.000000e+00 0.000000e+00 
    69.5                0.000000e+00 0.000000e+00 0.000000e+00 0.000000e+00 0.000000e+00 0.000000e+00 0.000000e+00 0.000000e+00 0.000000e+00 0.000000e+00 0.000000e+00 0.000000e+00 
    70.5                0.000000e+00 0.000000e+00 0.000000e+00 0.000000e+00 0.000000e+00 0.000000e+00 0.000000e+00 0.000000e+00 0.000000e+00 0.000000e+00 0.000000e+00 0.000000e+00 
    71.5                0.000000e+00 0.000000e+00 0.000000e+00 0.000000e+00 0.000000e+00 0.000000e+00 0.000000e+00 0.000000e+00 0.000000e+00 0.000000e+00 0.000000e+00 0.000000e+00 
    72.5                0.000000e+00 0.000000e+00 0.000000e+00 0.000000e+00 0.000000e+00 0.000000e+00 0.000000e+00 0.000000e+00 0.000000e+00 0.000000e+00 0.000000e+00 0.000000e+00 
    73.5                0.000000e+00 0.000000e+00 0.000000e+00 0.000000e+00 0.000000e+00 0.000000e+00 0.000000e+00 0.000000e+00 0.000000e+00 0.000000e+00 0.000000e+00 0.000000e+00 
    74.5                0.000000e+00 0.000000e+00 0.000000e+00 0.000000e+00 0.000000e+00 0.000000e+00 0.000000e+00 0.000000e+00 0.000000e+00 0.000000e+00 0.000000e+00 0.000000e+00 
    75.5                0.000000e+00 0.000000e+00 0.000000e+00 0.000000e+00 0.000000e+00 0.000000e+00 0.000000e+00 0.000000e+00 0.000000e+00 0.000000e+00 0.000000e+00 0.000000e+00 
    76.5                0.000000e+00 0.000000e+00 0.000000e+00 0.000000e+00 0.000000e+00 0.000000e+00 0.000000e+00 0.000000e+00 0.000000e+00 0.000000e+00 0.000000e+00 0.000000e+00 
    77.5                0.000000e+00 0.000000e+00 0.000000e+00 0.000000e+00 0.000000e+00 0.000000e+00 0.000000e+00 0.000000e+00 0.000000e+00 0.000000e+00 0.000000e+00 0.000000e+00 
    78.5                0.000000e+00 0.000000e+00 0.000000e+00 0.000000e+00 0.000000e+00 0.000000e+00 0.000000e+00 0.000000e+00 0.000000e+00 0.000000e+00 0.000000e+00 0.000000e+00 
    79.5                0.000000e+00 0.000000e+00 0.000000e+00 0.000000e+00 0.000000e+00 0.000000e+00 0.000000e+00 0.000000e+00 0.000000e+00 0.000000e+00 0.000000e+00 0.000000e+00 


