# 80 rows of flux data
# 12 columns of flux data
# 
# total cross-sectional flux  1.056172e+00 /m^2/yr
#
#                             +x ram      -x wake      +y port -y starboard    +z zenith     -z nadir        Earth          Sun     anti-Sun      rot (x)      rot (y)      rot (z) 
# average speed (km/s)         38.01        36.75        29.77        33.29        37.19        30.75        37.59        27.61        28.07        33.57        37.25        33.67 
# total flux (#/m2/yr)  2.198755e-01 2.618665e-01 3.432848e-01 3.077832e-01 4.662227e-01 3.945441e-04 4.593974e-01 1.641805e-01 1.760026e-01 8.733488e-01 7.481852e-01 8.774201e-01 
# velocity (km/s)
     0.5                0.000000e+00 0.000000e+00 0.000000e+00 0.000000e+00 0.000000e+00 0.000000e+00 0.000000e+00 0.000000e+00 0.000000e+00 0.000000e+00 0.000000e+00 0.000000e+00 
     1.5                0.000000e+00 0.000000e+00 0.000000e+00 0.000000e+00 0.000000e+00 0.000000e+00 0.000000e+00 0.000000e+00 0.000000e+00 0.000000e+00 0.000000e+00 0.000000e+00 
     2.5                1.188852e-04 2.564374e-05 7.202069e-05 7.140513e-05 1.554723e-04 6.800740e-08 1.541112e-04 7.159155e-05 8.161285e-05 2.375690e-04 2.381758e-04 2.265948e-04 
     3.5                4.729828e-04 3.180431e-04 3.295080e-04 3.579888e-04 8.146105e-04 3.686703e-07 8.111370e-04 3.878647e-04 4.315575e-04 1.181059e-03 1.268088e-03 1.159062e-03 
     4.5                8.496617e-04 9.192527e-04 7.664328e-04 8.359489e-04 1.752350e-03 9.105360e-07 1.745970e-03 9.132262e-04 9.654360e-04 2.630121e-03 2.778344e-03 2.639436e-03 
     5.5                1.273720e-03 1.597629e-03 1.346868e-03 1.431351e-03 2.780206e-03 1.618623e-06 2.766291e-03 1.546526e-03 1.614657e-03 4.353761e-03 4.457936e-03 4.409558e-03 
     6.5                1.659821e-03 2.300401e-03 2.150366e-03 2.121787e-03 3.817047e-03 2.564719e-06 3.779614e-03 2.208401e-03 2.268460e-03 6.350131e-03 6.134865e-03 6.432562e-03 
     7.5                2.042004e-03 2.895148e-03 3.019561e-03 2.840061e-03 4.755807e-03 3.579208e-06 4.693121e-03 2.807804e-03 2.880029e-03 8.348317e-03 7.648720e-03 8.448365e-03 
     8.5                2.389399e-03 3.439963e-03 3.916982e-03 3.500006e-03 5.597915e-03 4.609134e-06 5.497170e-03 3.375209e-03 3.428572e-03 1.025871e-02 9.018003e-03 1.037606e-02 
     9.5                2.660683e-03 3.872683e-03 4.776240e-03 4.130219e-03 6.317282e-03 5.570214e-06 6.182122e-03 3.852973e-03 3.925257e-03 1.202359e-02 1.014275e-02 1.211807e-02 
    10.5                2.972387e-03 4.225132e-03 5.656389e-03 4.724330e-03 6.945318e-03 6.576332e-06 6.768306e-03 4.292888e-03 4.403659e-03 1.370602e-02 1.116343e-02 1.381808e-02 
    11.5                3.212738e-03 4.613540e-03 6.756902e-03 5.376528e-03 7.596438e-03 7.841576e-06 7.357955e-03 4.745738e-03 4.897190e-03 1.565885e-02 1.217473e-02 1.573574e-02 
    12.5                3.394850e-03 4.893823e-03 7.524677e-03 5.895786e-03 8.058805e-03 8.560220e-06 7.784107e-03 5.056701e-03 5.244165e-03 1.705419e-02 1.290767e-02 1.713057e-02 
    13.5                3.430119e-03 5.073490e-03 8.382477e-03 6.214539e-03 8.266026e-03 9.591368e-06 7.923248e-03 5.194609e-03 5.392773e-03 1.823049e-02 1.324164e-02 1.830399e-02 
    14.5                3.564343e-03 4.968000e-03 8.836005e-03 6.401693e-03 8.339062e-03 1.012299e-05 7.962538e-03 5.241862e-03 5.459530e-03 1.883799e-02 1.332269e-02 1.888271e-02 
    15.5                3.630080e-03 5.141826e-03 9.641403e-03 6.837698e-03 8.602043e-03 1.111037e-05 8.181396e-03 5.351860e-03 5.594399e-03 2.008223e-02 1.372149e-02 2.010460e-02 
    16.5                3.681070e-03 5.096021e-03 9.885803e-03 6.911436e-03 8.598383e-03 1.142595e-05 8.157138e-03 5.363229e-03 5.610169e-03 2.035235e-02 1.372365e-02 2.036901e-02 
    17.5                3.694974e-03 5.114031e-03 1.022832e-02 7.059176e-03 8.657197e-03 1.183906e-05 8.193674e-03 5.321808e-03 5.583962e-03 2.080361e-02 1.379572e-02 2.080407e-02 
    18.5                3.761357e-03 5.082325e-03 1.055396e-02 7.250440e-03 8.698682e-03 1.229318e-05 8.221618e-03 5.275527e-03 5.555712e-03 2.126552e-02 1.385729e-02 2.125870e-02 
    19.5                3.747085e-03 5.039593e-03 1.055844e-02 7.347255e-03 8.688604e-03 1.215055e-05 8.224849e-03 5.151981e-03 5.446540e-03 2.131508e-02 1.380534e-02 2.126037e-02 
    20.5                3.692155e-03 4.961245e-03 1.039595e-02 7.276885e-03 8.475384e-03 1.184330e-05 8.025546e-03 4.962697e-03 5.256687e-03 2.093930e-02 1.353039e-02 2.093581e-02 
    21.5                3.742332e-03 4.809654e-03 1.051515e-02 7.295479e-03 8.426985e-03 1.208083e-05 7.968440e-03 4.817284e-03 5.114783e-03 2.101311e-02 1.341463e-02 2.096510e-02 
    22.5                3.666833e-03 4.878039e-03 1.064070e-02 7.432851e-03 8.461305e-03 1.200270e-05 8.006039e-03 4.685549e-03 4.996212e-03 2.123094e-02 1.343707e-02 2.116192e-02 
    23.5                3.518667e-03 4.650979e-03 1.002511e-02 7.077445e-03 7.988046e-03 1.137629e-05 7.570353e-03 4.385980e-03 4.675992e-03 2.006263e-02 1.276694e-02 2.003773e-02 
    24.5                3.435181e-03 4.381349e-03 9.526717e-03 6.844975e-03 7.675078e-03 1.067885e-05 7.293573e-03 4.118117e-03 4.399455e-03 1.919269e-02 1.223822e-02 1.914318e-02 
    25.5                3.344906e-03 4.286909e-03 9.261321e-03 6.721586e-03 7.461621e-03 1.029611e-05 7.100864e-03 3.888035e-03 4.164428e-03 1.869629e-02 1.192381e-02 1.865479e-02 
    26.5                3.317443e-03 4.101706e-03 8.812597e-03 6.559606e-03 7.274045e-03 9.713087e-06 6.951861e-03 3.675444e-03 3.946879e-03 1.801160e-02 1.160854e-02 1.795164e-02 
    27.5                3.183493e-03 4.034387e-03 8.350701e-03 6.387011e-03 7.055083e-03 9.079839e-06 6.771845e-03 3.468525e-03 3.730745e-03 1.727711e-02 1.127675e-02 1.722419e-02 
    28.5                3.114164e-03 3.849015e-03 7.935969e-03 6.150516e-03 6.778172e-03 8.530984e-06 6.520189e-03 3.207309e-03 3.458560e-03 1.650284e-02 1.085647e-02 1.646489e-02 
    29.5                2.888811e-03 3.704848e-03 7.468393e-03 5.854544e-03 6.423817e-03 7.977068e-06 6.191148e-03 2.901692e-03 3.139655e-03 1.559466e-02 1.028216e-02 1.554889e-02 
    30.5                2.816695e-03 3.432405e-03 7.120246e-03 5.579427e-03 6.059966e-03 7.603005e-06 5.840284e-03 2.687348e-03 2.909593e-03 1.481456e-02 9.724949e-03 1.477824e-02 
    31.5                2.803184e-03 3.316781e-03 6.801563e-03 5.475362e-03 5.962232e-03 6.998082e-06 5.769257e-03 2.520762e-03 2.738617e-03 1.433996e-02 9.544823e-03 1.429430e-02 
    32.5                2.690445e-03 3.227635e-03 6.325215e-03 5.194236e-03 5.727977e-03 6.495697e-06 5.561505e-03 2.311277e-03 2.515359e-03 1.351622e-02 9.200050e-03 1.347960e-02 
    33.5                2.751552e-03 3.126929e-03 6.018686e-03 5.084779e-03 5.686993e-03 6.005009e-06 5.545826e-03 2.128099e-03 2.329578e-03 1.309920e-02 9.133418e-03 1.306580e-02 
    34.5                2.750732e-03 3.185011e-03 6.013821e-03 5.155729e-03 5.763856e-03 5.904482e-06 5.633570e-03 2.039756e-03 2.242146e-03 1.317607e-02 9.238666e-03 1.313672e-02 
    35.5                2.650885e-03 3.065058e-03 5.467994e-03 4.801016e-03 5.518493e-03 5.308745e-06 5.411274e-03 1.906532e-03 2.092029e-03 1.222598e-02 8.871475e-03 1.220002e-02 
    36.5                2.706372e-03 2.961609e-03 5.282491e-03 4.719293e-03 5.505313e-03 5.053252e-06 5.412673e-03 1.775688e-03 1.957829e-03 1.197190e-02 8.824191e-03 1.192793e-02 
    37.5                2.784274e-03 3.089068e-03 5.310500e-03 4.790356e-03 5.637606e-03 5.095839e-06 5.551046e-03 1.717605e-03 1.899732e-03 1.212851e-02 9.093722e-03 1.213240e-02 
    38.5                2.983997e-03 2.997536e-03 5.121324e-03 4.731213e-03 5.770589e-03 4.851587e-06 5.700384e-03 1.644549e-03 1.825587e-03 1.199149e-02 9.275040e-03 1.196882e-02 
    39.5                2.873220e-03 3.227830e-03 5.019737e-03 4.743908e-03 5.940687e-03 4.730418e-06 5.884625e-03 1.591752e-03 1.772666e-03 1.201129e-02 9.502686e-03 1.196366e-02 
    40.5                2.960245e-03 3.170505e-03 4.900651e-03 4.666460e-03 5.883385e-03 4.639292e-06 5.832212e-03 1.525684e-03 1.700130e-03 1.179623e-02 9.489147e-03 1.181563e-02 
    41.5                3.261739e-03 3.205129e-03 4.847024e-03 4.742269e-03 6.234513e-03 4.625591e-06 6.198801e-03 1.502996e-03 1.681624e-03 1.204320e-02 1.002429e-02 1.204128e-02 
    42.5                3.163310e-03 3.485789e-03 4.644187e-03 4.682106e-03 6.457765e-03 4.464140e-06 6.438415e-03 1.495131e-03 1.672578e-03 1.197524e-02 1.034565e-02 1.195150e-02 
    43.5                3.345286e-03 3.385821e-03 4.388377e-03 4.494662e-03 6.385247e-03 4.342982e-06 6.374820e-03 1.450291e-03 1.619362e-03 1.156963e-02 1.035062e-02 1.165088e-02 
    44.5                3.676327e-03 3.539927e-03 4.503628e-03 4.738763e-03 6.983881e-03 4.411322e-06 6.987205e-03 1.491244e-03 1.671668e-03 1.226115e-02 1.120762e-02 1.226033e-02 
    45.5                3.655987e-03 3.903321e-03 4.484483e-03 4.789618e-03 7.223482e-03 4.527408e-06 7.235589e-03 1.494747e-03 1.674516e-03 1.243954e-02 1.166245e-02 1.251942e-02 
    46.5                3.740740e-03 3.819010e-03 4.314597e-03 4.697912e-03 7.279517e-03 4.371187e-06 7.301596e-03 1.459594e-03 1.635774e-03 1.227846e-02 1.170902e-02 1.232874e-02 
    47.5                3.991908e-03 3.966109e-03 4.233772e-03 4.711615e-03 7.595998e-03 4.417828e-06 7.627651e-03 1.479631e-03 1.657267e-03 1.247906e-02 1.227256e-02 1.258871e-02 
    48.5                4.371910e-03 4.056716e-03 4.141166e-03 4.754266e-03 8.127934e-03 4.496847e-06 8.173642e-03 1.524600e-03 1.707757e-03 1.285455e-02 1.306219e-02 1.290526e-02 
    49.5                4.801684e-03 4.483744e-03 4.213018e-03 4.967135e-03 8.817726e-03 4.755302e-06 8.880187e-03 1.579990e-03 1.772549e-03 1.358586e-02 1.427666e-02 1.377305e-02 
    50.5                5.502011e-03 4.778351e-03 4.270796e-03 5.238266e-03 9.829170e-03 5.016566e-06 9.912752e-03 1.656939e-03 1.865011e-03 1.460948e-02 1.586059e-02 1.479544e-02 
    51.5                6.056805e-03 5.454875e-03 4.284051e-03 5.521031e-03 1.117177e-02 5.364155e-06 1.128306e-02 1.732045e-03 1.959614e-03 1.591468e-02 1.789239e-02 1.600276e-02 
    52.5                6.052713e-03 6.139670e-03 4.097525e-03 5.499685e-03 1.178071e-02 5.452872e-06 1.191363e-02 1.777177e-03 2.008891e-03 1.628422e-02 1.890287e-02 1.643810e-02 
    53.5                6.134850e-03 6.261974e-03 3.833731e-03 5.328754e-03 1.193479e-02 5.390595e-06 1.207961e-02 1.795630e-03 2.023019e-03 1.612782e-02 1.918628e-02 1.633976e-02 
    54.5                5.775549e-03 6.372219e-03 3.566318e-03 5.093625e-03 1.179167e-02 5.200089e-06 1.194075e-02 1.780859e-03 1.999214e-03 1.566917e-02 1.888422e-02 1.580560e-02 
    55.5                5.829451e-03 6.298494e-03 3.369879e-03 4.887011e-03 1.152198e-02 5.165075e-06 1.167011e-02 1.757919e-03 1.965803e-03 1.517585e-02 1.864384e-02 1.552136e-02 
    56.5                5.554992e-03 6.161241e-03 3.152889e-03 4.686427e-03 1.130828e-02 4.872355e-06 1.145884e-02 1.718281e-03 1.917721e-03 1.470808e-02 1.815127e-02 1.491898e-02 
    57.5                5.071141e-03 5.930136e-03 2.831258e-03 4.282429e-03 1.054141e-02 4.583828e-06 1.068559e-02 1.636122e-03 1.816670e-03 1.358580e-02 1.699464e-02 1.384923e-02 
    58.5                4.861446e-03 5.450908e-03 2.519144e-03 3.905872e-03 9.879034e-03 4.222163e-06 1.001814e-02 1.514495e-03 1.679609e-03 1.257158e-02 1.592073e-02 1.282100e-02 
    59.5                4.636201e-03 5.154352e-03 2.281545e-03 3.636022e-03 9.422518e-03 3.911377e-06 9.558047e-03 1.389443e-03 1.543663e-03 1.184217e-02 1.514389e-02 1.206186e-02 
    60.5                4.219459e-03 4.977135e-03 2.033959e-03 3.318093e-03 8.813730e-03 3.646888e-06 8.943884e-03 1.239605e-03 1.380319e-03 1.096813e-02 1.419931e-02 1.120076e-02 
    61.5                3.673157e-03 4.505742e-03 1.692370e-03 2.881730e-03 7.968681e-03 3.181451e-06 8.088948e-03 1.085274e-03 1.208984e-03 9.752969e-03 1.273736e-02 9.864894e-03 
    62.5                3.004171e-03 4.157979e-03 1.380780e-03 2.405651e-03 6.810044e-03 2.804660e-06 6.916071e-03 9.272226e-04 1.030183e-03 8.269192e-03 1.101388e-02 8.500409e-03 
    63.5                2.454139e-03 3.396562e-03 1.067828e-03 1.920013e-03 5.575182e-03 2.250318e-06 5.663533e-03 7.637945e-04 8.463070e-04 6.697085e-03 9.007928e-03 6.893620e-03 
    64.5                1.963432e-03 2.796191e-03 8.327444e-04 1.529241e-03 4.520309e-03 1.837612e-06 4.592906e-03 6.051238e-04 6.704463e-04 5.395437e-03 7.317554e-03 5.565559e-03 
    65.5                1.497046e-03 2.222127e-03 6.112655e-04 1.168579e-03 3.566326e-03 1.425234e-06 3.624966e-03 4.560878e-04 5.064870e-04 4.208525e-03 5.745240e-03 4.315630e-03 
    66.5                1.064747e-03 1.782612e-03 4.334387e-04 8.613385e-04 2.709132e-03 1.071297e-06 2.754761e-03 3.263490e-04 3.636994e-04 3.165739e-03 4.380195e-03 3.268016e-03 
    67.5                6.816748e-04 1.307483e-03 2.759116e-04 5.743823e-04 1.871780e-03 7.487712e-07 1.904156e-03 2.118618e-04 2.369951e-04 2.164170e-03 3.044506e-03 2.255938e-03 
    68.5                3.831736e-04 8.779213e-04 1.543308e-04 3.452565e-04 1.181901e-03 4.773327e-07 1.202985e-03 1.213556e-04 1.368214e-04 1.348101e-03 1.926834e-03 1.411670e-03 
    69.5                1.694275e-04 5.367124e-04 7.374208e-05 1.790441e-04 6.453603e-04 2.672819e-07 6.576107e-04 5.870388e-05 6.693700e-05 7.270252e-04 1.065061e-03 7.776386e-04 
    70.5                4.341042e-05 2.684570e-04 2.650141e-05 7.112358e-05 2.717629e-04 1.226075e-07 2.771128e-04 2.209924e-05 2.544896e-05 3.024554e-04 4.605161e-04 3.373580e-04 
    71.5                5.759601e-06 9.668299e-05 6.611529e-06 1.852600e-05 7.283801e-05 4.453398e-08 7.447671e-05 5.555087e-06 6.422067e-06 8.084845e-05 1.384832e-04 1.077190e-04 
    72.5                1.274725e-07 1.681492e-05 7.372955e-07 2.371009e-06 9.941650e-06 8.489054e-09 1.021988e-05 7.795462e-07 8.932101e-07 1.088595e-05 2.139066e-05 1.744603e-05 
    73.5                0.000000e+00 1.281617e-06 2.075952e-08 1.014805e-07 4.758906e-07 7.706260e-10 4.956012e-07 3.179707e-08 3.704086e-08 5.067177e-07 1.417487e-06 1.290702e-06 
    74.5                0.000000e+00 0.000000e+00 0.000000e+00 0.000000e+00 0.000000e+00 0.000000e+00 0.000000e+00 0.000000e+00 0.000000e+00 0.000000e+00 0.000000e+00 0.000000e+00 
    75.5                0.000000e+00 0.000000e+00 0.000000e+00 0.000000e+00 0.000000e+00 0.000000e+00 0.000000e+00 0.000000e+00 0.000000e+00 0.000000e+00 0.000000e+00 0.000000e+00 
    76.5                0.000000e+00 0.000000e+00 0.000000e+00 0.000000e+00 0.000000e+00 0.000000e+00 0.000000e+00 0.000000e+00 0.000000e+00 0.000000e+00 0.000000e+00 0.000000e+00 
    77.5                0.000000e+00 0.000000e+00 0.000000e+00 0.000000e+00 0.000000e+00 0.000000e+00 0.000000e+00 0.000000e+00 0.000000e+00 0.000000e+00 0.000000e+00 0.000000e+00 
    78.5                0.000000e+00 0.000000e+00 0.000000e+00 0.000000e+00 0.000000e+00 0.000000e+00 0.000000e+00 0.000000e+00 0.000000e+00 0.000000e+00 0.000000e+00 0.000000e+00 
    79.5                0.000000e+00 0.000000e+00 0.000000e+00 0.000000e+00 0.000000e+00 0.000000e+00 0.000000e+00 0.000000e+00 0.000000e+00 0.000000e+00 0.000000e+00 0.000000e+00 


