# 80 rows of flux data
# 12 columns of flux data
# 
# total cross-sectional flux  1.115952e+00 /m^2/yr
#
#                             +x ram      -x wake      +y port -y starboard    +z zenith     -z nadir        Earth          Sun     anti-Sun      rot (x)      rot (y)      rot (z) 
# average speed (km/s)         37.20        37.20        36.22        27.97        35.50        32.44        37.23        27.58        27.57        33.37        36.35        33.89 
# total flux (#/m2/yr)  2.501187e-01 2.498735e-01 2.831805e-01 3.667039e-01 5.217890e-01 4.082215e-04 2.495746e-01 1.844654e-01 1.844728e-01 9.286806e-01 8.049402e-01 8.961140e-01 
# velocity (km/s)
     0.5                0.000000e+00 0.000000e+00 0.000000e+00 0.000000e+00 0.000000e+00 0.000000e+00 0.000000e+00 0.000000e+00 0.000000e+00 0.000000e+00 0.000000e+00 0.000000e+00 
     1.5                0.000000e+00 0.000000e+00 0.000000e+00 0.000000e+00 0.000000e+00 0.000000e+00 0.000000e+00 0.000000e+00 0.000000e+00 0.000000e+00 0.000000e+00 0.000000e+00 
     2.5                9.096383e-05 9.171265e-05 5.621888e-05 9.684621e-05 1.091753e-04 9.369239e-08 9.056143e-05 7.520138e-05 7.543620e-05 2.087834e-04 2.287300e-04 2.633957e-04 
     3.5                4.332172e-04 4.340451e-04 3.187292e-04 3.798820e-04 6.867166e-04 4.527863e-07 4.310078e-04 3.887144e-04 3.885001e-04 1.099201e-03 1.219609e-03 1.219374e-03 
     4.5                9.558198e-04 9.551358e-04 8.752592e-04 8.123252e-04 1.779713e-03 9.569210e-07 9.506834e-04 9.587591e-04 9.589896e-04 2.740942e-03 2.896116e-03 2.805907e-03 
     5.5                1.539590e-03 1.537461e-03 1.579300e-03 1.421234e-03 3.038422e-03 1.662231e-06 1.530549e-03 1.688156e-03 1.688398e-03 4.772431e-03 4.801664e-03 4.738041e-03 
     6.5                2.140685e-03 2.136941e-03 2.337542e-03 2.260988e-03 4.407422e-03 2.503544e-06 2.127911e-03 2.471196e-03 2.471673e-03 7.109350e-03 6.826164e-03 6.935851e-03 
     7.5                2.669537e-03 2.665415e-03 3.004469e-03 3.260068e-03 5.626316e-03 3.450510e-06 2.653732e-03 3.171503e-03 3.171950e-03 9.394869e-03 8.613999e-03 9.076398e-03 
     8.5                3.121407e-03 3.116248e-03 3.618766e-03 4.240879e-03 6.756591e-03 4.335815e-06 3.103289e-03 3.790606e-03 3.791564e-03 1.153874e-02 1.022372e-02 1.105194e-02 
     9.5                3.536608e-03 3.531183e-03 4.095390e-03 5.281202e-03 7.720942e-03 5.242894e-06 3.516226e-03 4.352426e-03 4.353250e-03 1.349790e-02 1.162966e-02 1.290995e-02 
    10.5                3.838511e-03 3.831640e-03 4.504122e-03 6.300562e-03 8.538187e-03 6.056098e-06 3.816828e-03 4.806997e-03 4.808087e-03 1.527368e-02 1.275188e-02 1.452306e-02 
    11.5                4.193002e-03 4.186295e-03 4.887990e-03 7.577473e-03 9.489905e-03 7.052604e-06 4.169660e-03 5.347488e-03 5.348479e-03 1.732257e-02 1.406421e-02 1.643041e-02 
    12.5                4.439824e-03 4.432191e-03 5.250945e-03 8.598815e-03 1.016442e-02 7.855474e-06 4.415028e-03 5.771155e-03 5.771891e-03 1.896634e-02 1.497979e-02 1.791525e-02 
    13.5                4.523991e-03 4.515806e-03 5.430481e-03 9.518113e-03 1.071431e-02 8.259008e-06 4.501139e-03 5.924302e-03 5.925470e-03 2.022444e-02 1.556507e-02 1.899485e-02 
    14.5                4.516027e-03 4.509801e-03 5.243221e-03 1.010392e-02 1.068418e-02 8.562376e-06 4.493478e-03 5.943001e-03 5.944001e-03 2.052727e-02 1.552675e-02 1.932626e-02 
    15.5                4.633338e-03 4.625143e-03 5.411789e-03 1.110822e-02 1.120760e-02 9.205099e-06 4.611694e-03 6.045826e-03 6.046918e-03 2.184123e-02 1.612398e-02 2.047970e-02 
    16.5                4.597890e-03 4.590487e-03 5.346866e-03 1.136346e-02 1.118220e-02 9.523208e-06 4.576913e-03 6.029035e-03 6.029891e-03 2.197212e-02 1.605861e-02 2.059162e-02 
    17.5                4.628385e-03 4.620236e-03 5.357781e-03 1.176707e-02 1.130952e-02 9.827800e-06 4.607711e-03 6.015139e-03 6.016116e-03 2.239997e-02 1.620898e-02 2.097153e-02 
    18.5                4.625058e-03 4.618053e-03 5.348110e-03 1.222713e-02 1.135149e-02 9.865484e-06 4.606033e-03 5.929322e-03 5.930123e-03 2.279721e-02 1.622657e-02 2.133547e-02 
    19.5                4.623481e-03 4.616229e-03 5.322307e-03 1.236839e-02 1.125861e-02 1.021797e-05 4.604144e-03 5.832059e-03 5.833010e-03 2.284068e-02 1.614577e-02 2.139553e-02 
    20.5                4.521817e-03 4.514591e-03 5.297032e-03 1.217617e-02 1.106059e-02 1.034422e-05 4.503802e-03 5.607684e-03 5.608508e-03 2.252637e-02 1.582483e-02 2.103391e-02 
    21.5                4.445378e-03 4.440167e-03 5.145742e-03 1.226177e-02 1.082144e-02 1.037833e-05 4.429125e-03 5.388688e-03 5.389263e-03 2.228671e-02 1.552899e-02 2.085306e-02 
    22.5                4.507097e-03 4.499916e-03 5.265318e-03 1.253705e-02 1.098106e-02 1.063249e-05 4.491722e-03 5.318586e-03 5.319337e-03 2.273337e-02 1.573739e-02 2.123943e-02 
    23.5                4.248501e-03 4.241720e-03 5.063546e-03 1.177135e-02 1.038728e-02 1.029229e-05 4.234579e-03 4.966112e-03 4.966879e-03 2.150693e-02 1.486933e-02 2.004165e-02 
    24.5                4.077660e-03 4.072836e-03 4.789933e-03 1.125550e-02 9.783956e-03 1.012074e-05 4.064309e-03 4.658752e-03 4.659284e-03 2.043433e-02 1.411548e-02 1.909848e-02 
    25.5                3.965153e-03 3.958943e-03 4.769405e-03 1.099459e-02 9.528205e-03 1.021506e-05 3.952313e-03 4.389182e-03 4.389522e-03 2.002380e-02 1.373293e-02 1.868418e-02 
    26.5                3.864826e-03 3.860087e-03 4.588037e-03 1.046041e-02 9.070969e-03 9.841402e-06 3.852265e-03 4.136388e-03 4.137019e-03 1.912114e-02 1.320804e-02 1.790468e-02 
    27.5                3.773919e-03 3.769173e-03 4.621832e-03 9.929970e-03 8.799212e-03 9.615226e-06 3.762407e-03 3.932997e-03 3.932985e-03 1.852515e-02 1.284853e-02 1.731457e-02 
    28.5                3.620671e-03 3.615435e-03 4.459629e-03 9.364093e-03 8.357000e-03 9.170063e-06 3.610009e-03 3.662327e-03 3.662962e-03 1.760488e-02 1.225819e-02 1.645656e-02 
    29.5                3.466074e-03 3.461091e-03 4.350585e-03 8.880238e-03 7.991528e-03 8.734659e-06 3.457034e-03 3.321682e-03 3.321855e-03 1.684696e-02 1.172254e-02 1.572715e-02 
    30.5                3.234959e-03 3.230798e-03 4.006850e-03 8.397028e-03 7.431463e-03 8.396036e-06 3.227377e-03 3.030800e-03 3.030990e-03 1.574726e-02 1.092459e-02 1.470814e-02 
    31.5                3.175163e-03 3.171831e-03 3.946564e-03 8.024820e-03 7.127890e-03 8.456172e-06 3.167710e-03 2.866609e-03 2.866662e-03 1.518315e-02 1.059188e-02 1.421372e-02 
    32.5                3.057184e-03 3.051995e-03 3.953654e-03 7.337078e-03 6.816274e-03 7.832524e-06 3.050542e-03 2.628359e-03 2.628482e-03 1.438969e-02 1.016914e-02 1.345673e-02 
    33.5                3.028447e-03 3.025746e-03 3.883314e-03 6.942669e-03 6.545578e-03 7.545012e-06 3.022624e-03 2.406296e-03 2.406225e-03 1.383281e-02 9.906851e-03 1.299575e-02 
    34.5                3.077746e-03 3.074776e-03 3.985557e-03 6.937021e-03 6.634246e-03 7.736427e-06 3.072754e-03 2.294762e-03 2.294782e-03 1.397065e-02 1.005417e-02 1.311309e-02 
    35.5                2.944550e-03 2.939594e-03 3.916555e-03 6.135317e-03 6.261688e-03 7.050903e-06 2.939796e-03 2.154689e-03 2.154602e-03 1.297627e-02 9.562670e-03 1.218770e-02 
    36.5                2.934849e-03 2.932419e-03 3.778551e-03 5.868193e-03 6.042845e-03 6.777197e-06 2.930266e-03 2.001883e-03 2.001702e-03 1.249095e-02 9.373399e-03 1.181425e-02 
    37.5                2.987016e-03 2.982999e-03 3.964140e-03 5.854353e-03 6.250508e-03 6.691698e-06 2.983581e-03 1.927765e-03 1.927582e-03 1.278055e-02 9.621668e-03 1.202488e-02 
    38.5                2.981419e-03 2.981479e-03 3.844554e-03 5.456004e-03 6.022096e-03 6.473007e-06 2.978055e-03 1.822222e-03 1.822203e-03 1.218363e-02 9.445326e-03 1.158247e-02 
    39.5                3.197498e-03 3.193740e-03 4.108359e-03 5.346741e-03 6.396718e-03 6.487582e-06 3.195305e-03 1.783968e-03 1.783830e-03 1.259859e-02 1.006515e-02 1.198565e-02 
    40.5                3.114788e-03 3.115825e-03 4.038566e-03 5.124643e-03 6.261612e-03 6.117405e-06 3.111992e-03 1.708489e-03 1.708391e-03 1.226219e-02 9.843841e-03 1.163037e-02 
    41.5                3.199967e-03 3.197865e-03 4.104061e-03 4.912176e-03 6.277491e-03 6.066890e-06 3.197331e-03 1.629208e-03 1.628704e-03 1.214525e-02 9.999603e-03 1.161656e-02 
    42.5                3.459938e-03 3.458831e-03 4.390782e-03 4.659662e-03 6.720284e-03 5.790959e-06 3.456838e-03 1.663962e-03 1.663825e-03 1.250921e-02 1.074983e-02 1.202251e-02 
    43.5                3.323658e-03 3.319809e-03 4.201163e-03 4.208684e-03 6.477140e-03 5.354956e-06 3.321622e-03 1.578559e-03 1.578141e-03 1.181082e-02 1.035292e-02 1.133239e-02 
    44.5                3.607845e-03 3.607761e-03 4.327017e-03 4.221925e-03 6.764507e-03 5.567096e-06 3.603487e-03 1.597375e-03 1.597000e-03 1.215018e-02 1.103107e-02 1.185211e-02 
    45.5                3.830976e-03 3.828386e-03 4.710773e-03 4.146494e-03 7.369352e-03 5.505563e-06 3.828291e-03 1.664184e-03 1.664040e-03 1.287397e-02 1.185065e-02 1.242120e-02 
    46.5                3.806842e-03 3.809288e-03 4.585392e-03 3.956398e-03 7.205080e-03 5.302087e-06 3.805185e-03 1.589113e-03 1.588481e-03 1.249641e-02 1.169433e-02 1.214331e-02 
    47.5                3.960251e-03 3.956207e-03 4.694261e-03 3.799555e-03 7.434240e-03 5.169007e-06 3.956535e-03 1.577900e-03 1.577570e-03 1.262869e-02 1.210507e-02 1.236780e-02 
    48.5                4.108894e-03 4.110730e-03 4.698823e-03 3.562427e-03 7.561363e-03 5.278634e-06 4.105364e-03 1.632854e-03 1.632472e-03 1.255939e-02 1.246955e-02 1.246288e-02 
    49.5                4.530831e-03 4.532868e-03 5.048715e-03 3.492807e-03 8.315546e-03 5.381911e-06 4.528625e-03 1.673124e-03 1.672383e-03 1.339427e-02 1.370893e-02 1.335575e-02 
    50.5                4.891332e-03 4.893944e-03 5.299687e-03 3.460061e-03 8.821553e-03 5.762182e-06 4.887705e-03 1.741908e-03 1.741368e-03 1.398952e-02 1.470128e-02 1.411204e-02 
    51.5                5.632276e-03 5.631566e-03 5.847604e-03 3.360526e-03 1.000029e-02 6.219718e-06 5.627283e-03 1.841663e-03 1.841326e-03 1.530414e-02 1.680053e-02 1.569144e-02 
    52.5                6.178363e-03 6.184460e-03 6.367662e-03 3.127343e-03 1.117932e-02 6.251157e-06 6.175065e-03 1.912452e-03 1.911553e-03 1.647261e-02 1.857556e-02 1.686215e-02 
    53.5                6.240059e-03 6.241749e-03 6.327936e-03 2.823112e-03 1.134646e-02 6.085655e-06 6.237039e-03 1.941752e-03 1.941280e-03 1.632899e-02 1.880633e-02 1.676181e-02 
    54.5                6.365274e-03 6.359122e-03 6.355045e-03 2.595590e-03 1.151910e-02 5.957037e-06 6.363318e-03 1.945265e-03 1.945177e-03 1.629832e-02 1.912260e-02 1.684831e-02 
    55.5                6.103732e-03 6.098186e-03 6.184200e-03 2.332012e-03 1.135438e-02 5.607202e-06 6.100511e-03 1.909807e-03 1.909104e-03 1.581515e-02 1.857840e-02 1.612404e-02 
    56.5                6.096571e-03 6.094320e-03 6.005862e-03 2.190703e-03 1.110595e-02 5.504364e-06 6.093131e-03 1.883570e-03 1.883065e-03 1.536409e-02 1.836636e-02 1.589665e-02 
    57.5                5.767939e-03 5.761325e-03 5.740080e-03 1.950986e-03 1.066441e-02 5.055530e-06 5.765493e-03 1.826553e-03 1.826036e-03 1.461158e-02 1.750122e-02 1.501595e-02 
    58.5                5.307121e-03 5.306209e-03 5.212505e-03 1.651156e-03 9.792494e-03 4.633978e-06 5.306091e-03 1.698041e-03 1.697461e-03 1.326447e-02 1.609580e-02 1.369577e-02 
    59.5                5.062735e-03 5.060647e-03 4.879360e-03 1.466633e-03 9.250153e-03 4.369372e-06 5.060000e-03 1.568300e-03 1.567904e-03 1.243058e-02 1.527447e-02 1.293427e-02 
    60.5                4.844075e-03 4.835971e-03 4.669478e-03 1.279030e-03 8.912162e-03 4.014675e-06 4.842688e-03 1.426058e-03 1.425966e-03 1.185002e-02 1.465288e-02 1.231396e-02 
    61.5                4.387625e-03 4.388115e-03 4.177774e-03 1.063860e-03 8.060651e-03 3.663208e-06 4.385924e-03 1.256390e-03 1.255960e-03 1.060050e-02 1.328027e-02 1.107818e-02 
    62.5                3.903366e-03 3.896658e-03 3.789717e-03 8.037824e-04 7.413551e-03 2.979342e-06 3.902879e-03 1.095238e-03 1.094935e-03 9.564326e-03 1.197844e-02 9.831590e-03 
    63.5                3.190795e-03 3.183673e-03 3.068560e-03 6.171233e-04 6.052588e-03 2.426930e-06 3.190458e-03 9.135026e-04 9.133416e-04 7.748294e-03 9.785308e-03 7.988821e-03 
    64.5                2.617607e-03 2.614254e-03 2.510120e-03 4.639069e-04 4.979841e-03 1.947990e-06 2.617627e-03 7.413164e-04 7.411105e-04 6.332674e-03 8.040797e-03 6.535377e-03 
    65.5                2.072612e-03 2.070422e-03 1.978805e-03 3.349893e-04 3.952418e-03 1.542555e-06 2.072911e-03 5.704086e-04 5.702708e-04 4.987338e-03 6.375414e-03 5.154050e-03 
    66.5                1.627774e-03 1.623968e-03 1.567072e-03 2.268154e-04 3.163874e-03 1.131035e-06 1.628202e-03 4.252419e-04 4.250984e-04 3.940926e-03 5.046822e-03 4.037864e-03 
    67.5                1.170489e-03 1.165744e-03 1.138406e-03 1.387442e-04 2.317149e-03 7.739139e-07 1.171043e-03 2.901458e-04 2.901248e-04 2.852937e-03 3.658355e-03 2.898656e-03 
    68.5                7.634587e-04 7.610906e-04 7.558567e-04 7.336721e-05 1.555114e-03 4.825189e-07 7.640639e-04 1.772792e-04 1.771932e-04 1.886695e-03 2.420342e-03 1.892234e-03 
    69.5                4.484345e-04 4.467177e-04 4.560341e-04 3.149684e-05 9.482782e-04 2.456695e-07 4.491720e-04 9.335935e-05 9.334040e-05 1.131028e-03 1.445460e-03 1.112850e-03 
    70.5                2.115440e-04 2.106418e-04 2.256686e-04 9.665013e-06 4.740119e-04 9.746417e-08 2.119989e-04 3.926310e-05 3.924496e-05 5.545768e-04 7.016527e-04 5.285516e-04 
    71.5                6.407416e-05 6.368906e-05 8.017175e-05 1.274862e-06 1.703612e-04 1.914393e-08 6.436405e-05 1.079252e-05 1.078971e-05 1.946982e-04 2.328940e-04 1.663443e-04 
    72.5                9.645117e-06 9.561647e-06 1.388985e-05 3.960635e-08 2.969851e-05 1.762168e-09 9.724379e-06 1.610543e-06 1.611872e-06 3.332101e-05 3.836671e-05 2.608431e-05 
    73.5                4.997415e-07 4.923381e-07 1.053065e-06 0.000000e+00 2.255625e-06 0.000000e+00 5.076980e-07 6.730043e-08 6.731819e-08 2.497778e-06 2.566536e-06 1.554577e-06 
    74.5                0.000000e+00 0.000000e+00 0.000000e+00 0.000000e+00 0.000000e+00 0.000000e+00 0.000000e+00 0.000000e+00 0.000000e+00 0.000000e+00 0.000000e+00 0.000000e+00 
    75.5                0.000000e+00 0.000000e+00 0.000000e+00 0.000000e+00 0.000000e+00 0.000000e+00 0.000000e+00 0.000000e+00 0.000000e+00 0.000000e+00 0.000000e+00 0.000000e+00 
    76.5                0.000000e+00 0.000000e+00 0.000000e+00 0.000000e+00 0.000000e+00 0.000000e+00 0.000000e+00 0.000000e+00 0.000000e+00 0.000000e+00 0.000000e+00 0.000000e+00 
    77.5                0.000000e+00 0.000000e+00 0.000000e+00 0.000000e+00 0.000000e+00 0.000000e+00 0.000000e+00 0.000000e+00 0.000000e+00 0.000000e+00 0.000000e+00 0.000000e+00 
    78.5                0.000000e+00 0.000000e+00 0.000000e+00 0.000000e+00 0.000000e+00 0.000000e+00 0.000000e+00 0.000000e+00 0.000000e+00 0.000000e+00 0.000000e+00 0.000000e+00 
    79.5                0.000000e+00 0.000000e+00 0.000000e+00 0.000000e+00 0.000000e+00 0.000000e+00 0.000000e+00 0.000000e+00 0.000000e+00 0.000000e+00 0.000000e+00 0.000000e+00 


