# 80 rows of flux data
# 12 columns of flux data
# 
# total cross-sectional flux  2.269792e+00 /m^2/yr
#
#                             +x ram      -x wake      +y port -y starboard    +z zenith     -z nadir        Earth          Sun     anti-Sun      rot (x)      rot (y)      rot (z) 
# average speed (km/s)         24.78        23.95        20.28        25.37        21.87        25.41        20.57        24.72        24.70        23.61        23.91        24.30 
# total flux (#/m2/yr)  7.580443e-01 6.462456e-01 3.113938e-01 1.015818e+00 5.445284e-01 1.720998e-03 2.713386e-01 9.981623e-01 9.894337e-01 1.518200e+00 1.614546e+00 2.147247e+00 
# velocity (km/s)
     0.5                0.000000e+00 0.000000e+00 0.000000e+00 0.000000e+00 0.000000e+00 0.000000e+00 0.000000e+00 0.000000e+00 0.000000e+00 0.000000e+00 0.000000e+00 0.000000e+00 
     1.5                0.000000e+00 0.000000e+00 0.000000e+00 0.000000e+00 0.000000e+00 0.000000e+00 0.000000e+00 0.000000e+00 0.000000e+00 0.000000e+00 0.000000e+00 0.000000e+00 
     2.5                0.000000e+00 5.598067e-06 1.207166e-06 1.082714e-06 2.398162e-06 4.350057e-10 9.352598e-07 1.118112e-06 5.992576e-07 3.559322e-06 6.173468e-06 6.260098e-06 
     3.5                5.767280e-06 1.448596e-04 6.006677e-05 7.501946e-05 7.462205e-05 9.831951e-08 5.203371e-05 5.582518e-05 4.428267e-05 1.665691e-04 1.790268e-04 2.247465e-04 
     4.5                1.680271e-04 6.017160e-04 2.858487e-04 4.307513e-04 4.018636e-04 6.153573e-07 2.438489e-04 2.955006e-04 2.506567e-04 8.888971e-04 9.352488e-04 1.166818e-03 
     5.5                6.806325e-04 1.567193e-03 9.099207e-04 1.370575e-03 1.342922e-03 1.826038e-06 7.677966e-04 9.834802e-04 8.969419e-04 2.874074e-03 2.850502e-03 3.557718e-03 
     6.5                2.092955e-03 2.904035e-03 1.999640e-03 2.934458e-03 3.003672e-03 4.100585e-06 1.679787e-03 2.236824e-03 2.138580e-03 6.277290e-03 6.347893e-03 7.797722e-03 
     7.5                3.786869e-03 5.101284e-03 3.519250e-03 5.128712e-03 5.448204e-03 7.464482e-06 2.932989e-03 4.083020e-03 4.011275e-03 1.114637e-02 1.136374e-02 1.376997e-02 
     8.5                6.351801e-03 7.552421e-03 5.593162e-03 8.251468e-03 8.507079e-03 1.186557e-05 4.685433e-03 6.667345e-03 6.651377e-03 1.770012e-02 1.774296e-02 2.178797e-02 
     9.5                9.636167e-03 9.546087e-03 7.819582e-03 1.131269e-02 1.188048e-02 1.647305e-05 6.544040e-03 9.780622e-03 9.781188e-03 2.453858e-02 2.459654e-02 3.009336e-02 
    10.5                1.286019e-02 1.160523e-02 9.848992e-03 1.392836e-02 1.532646e-02 2.059884e-05 8.173818e-03 1.334775e-02 1.328454e-02 3.089717e-02 3.150355e-02 3.789229e-02 
    11.5                1.512932e-02 1.334564e-02 1.146783e-02 1.648123e-02 1.819218e-02 2.444656e-05 9.467963e-03 1.686228e-02 1.675264e-02 3.648755e-02 3.698455e-02 4.432487e-02 
    12.5                1.733578e-02 1.463088e-02 1.247323e-02 1.848982e-02 2.009498e-02 2.782024e-05 1.026236e-02 1.996552e-02 1.984749e-02 4.044457e-02 4.133401e-02 4.943390e-02 
    13.5                1.868127e-02 1.665706e-02 1.338952e-02 2.069054e-02 2.155866e-02 3.207178e-05 1.103842e-02 2.303059e-02 2.291081e-02 4.417918e-02 4.534142e-02 5.451990e-02 
    14.5                2.042956e-02 1.843425e-02 1.429978e-02 2.345437e-02 2.266010e-02 3.712809e-05 1.188118e-02 2.630584e-02 2.616946e-02 4.810938e-02 4.921477e-02 6.017848e-02 
    15.5                2.224621e-02 2.009065e-02 1.489947e-02 2.621142e-02 2.319646e-02 4.261055e-05 1.249876e-02 2.945638e-02 2.930675e-02 5.137439e-02 5.265639e-02 6.554988e-02 
    16.5                2.423121e-02 2.160413e-02 1.534542e-02 2.900824e-02 2.369020e-02 4.858161e-05 1.297559e-02 3.244606e-02 3.227595e-02 5.450890e-02 5.613693e-02 7.083108e-02 
    17.5                2.566862e-02 2.304342e-02 1.546803e-02 3.148610e-02 2.372800e-02 5.326904e-05 1.318697e-02 3.510329e-02 3.491814e-02 5.676546e-02 5.871336e-02 7.513518e-02 
    18.5                2.700951e-02 2.410920e-02 1.548668e-02 3.385400e-02 2.348803e-02 5.803731e-05 1.332917e-02 3.748159e-02 3.728324e-02 5.864157e-02 6.072575e-02 7.890600e-02 
    19.5                2.828616e-02 2.491626e-02 1.541769e-02 3.572391e-02 2.329467e-02 6.229262e-05 1.335958e-02 3.939653e-02 3.919119e-02 6.006164e-02 6.250865e-02 8.196395e-02 
    20.5                2.896295e-02 2.568277e-02 1.501946e-02 3.731817e-02 2.276792e-02 6.579511e-05 1.309845e-02 4.075789e-02 4.053235e-02 6.074766e-02 6.350962e-02 8.404380e-02 
    21.5                2.950865e-02 2.678138e-02 1.457813e-02 3.923028e-02 2.229545e-02 6.934170e-05 1.280768e-02 4.222477e-02 4.197340e-02 6.168636e-02 6.470699e-02 8.649233e-02 
    22.5                3.051381e-02 2.748594e-02 1.433204e-02 4.117729e-02 2.213987e-02 7.306585e-05 1.265730e-02 4.374040e-02 4.346401e-02 6.306914e-02 6.623182e-02 8.917400e-02 
    23.5                3.138308e-02 2.779941e-02 1.384097e-02 4.256394e-02 2.153914e-02 7.635650e-05 1.231314e-02 4.464851e-02 4.434884e-02 6.344827e-02 6.696001e-02 9.080858e-02 
    24.5                3.159425e-02 2.799693e-02 1.313377e-02 4.349917e-02 2.082374e-02 7.823062e-05 1.175092e-02 4.494822e-02 4.462174e-02 6.317720e-02 6.694484e-02 9.131535e-02 
    25.5                3.172078e-02 2.795111e-02 1.226184e-02 4.435978e-02 1.998419e-02 8.035595e-05 1.104010e-02 4.496837e-02 4.461273e-02 6.262334e-02 6.658227e-02 9.137824e-02 
    26.5                3.164548e-02 2.729762e-02 1.119687e-02 4.456982e-02 1.903117e-02 8.023696e-05 1.012821e-02 4.432988e-02 4.395183e-02 6.125099e-02 6.540597e-02 9.013913e-02 
    27.5                3.106438e-02 2.666761e-02 1.010101e-02 4.413936e-02 1.795218e-02 7.969061e-05 9.180483e-03 4.320412e-02 4.281110e-02 5.920874e-02 6.372697e-02 8.799321e-02 
    28.5                3.012038e-02 2.580458e-02 9.022925e-03 4.348749e-02 1.691024e-02 7.768591e-05 8.235501e-03 4.174211e-02 4.133399e-02 5.701061e-02 6.150287e-02 8.521886e-02 
    29.5                2.923029e-02 2.464890e-02 7.994199e-03 4.237877e-02 1.579841e-02 7.536624e-05 7.333184e-03 4.001377e-02 3.959748e-02 5.440326e-02 5.902114e-02 8.194227e-02 
    30.5                2.793761e-02 2.336015e-02 6.902886e-03 4.086965e-02 1.461064e-02 7.230942e-05 6.363668e-03 3.788871e-02 3.746938e-02 5.134916e-02 5.599310e-02 7.788460e-02 
    31.5                2.648977e-02 2.182136e-02 5.790063e-03 3.899883e-02 1.338203e-02 6.794739e-05 5.365710e-03 3.544700e-02 3.502854e-02 4.791401e-02 5.256184e-02 7.320973e-02 
    32.5                2.481342e-02 2.003068e-02 4.736308e-03 3.665016e-02 1.213076e-02 6.258814e-05 4.411475e-03 3.265008e-02 3.224166e-02 4.409546e-02 4.865893e-02 6.782495e-02 
    33.5                2.293609e-02 1.800546e-02 3.818586e-03 3.374639e-02 1.084128e-02 5.674969e-05 3.575504e-03 2.954179e-02 2.915339e-02 3.988969e-02 4.432316e-02 6.176663e-02 
    34.5                2.073792e-02 1.597725e-02 3.003203e-03 3.049618e-02 9.546360e-03 5.039285e-05 2.828016e-03 2.625173e-02 2.589202e-02 3.546880e-02 3.967264e-02 5.526207e-02 
    35.5                1.848399e-02 1.394737e-02 2.286646e-03 2.712488e-02 8.289300e-03 4.378614e-05 2.167331e-03 2.296417e-02 2.263638e-02 3.105199e-02 3.497944e-02 4.869559e-02 
    36.5                1.620495e-02 1.197390e-02 1.678683e-03 2.375789e-02 7.091341e-03 3.743773e-05 1.605448e-03 1.975870e-02 1.946522e-02 2.677688e-02 3.034277e-02 4.223982e-02 
    37.5                1.401636e-02 1.005976e-02 1.201072e-03 2.041153e-02 5.974010e-03 3.149576e-05 1.160861e-03 1.669923e-02 1.644425e-02 2.269434e-02 2.588688e-02 3.601626e-02 
    38.5                1.186899e-02 8.171999e-03 8.303269e-04 1.709369e-02 4.918864e-03 2.581984e-05 8.134533e-04 1.375885e-02 1.354426e-02 1.877825e-02 2.152480e-02 2.994892e-02 
    39.5                9.809997e-03 6.347566e-03 5.554525e-04 1.380969e-02 3.920022e-03 2.054407e-05 5.532291e-04 1.095669e-02 1.078497e-02 1.501999e-02 1.733237e-02 2.409385e-02 
    40.5                7.779646e-03 4.687100e-03 3.524857e-04 1.065392e-02 2.990094e-03 1.569932e-05 3.585598e-04 8.342183e-03 8.211854e-03 1.148833e-02 1.335766e-02 1.854404e-02 
    41.5                5.889029e-03 3.303508e-03 2.152660e-04 7.823394e-03 2.175900e-03 1.152694e-05 2.246782e-04 6.061106e-03 5.967774e-03 8.378149e-03 9.836106e-03 1.362407e-02 
    42.5                4.232901e-03 2.202156e-03 1.255845e-04 5.473046e-03 1.511218e-03 8.032071e-06 1.350265e-04 4.188450e-03 4.125245e-03 5.827641e-03 6.880159e-03 9.522270e-03 
    43.5                2.913205e-03 1.316418e-03 6.958734e-05 3.585620e-03 9.845063e-04 5.278080e-06 7.739966e-05 2.713819e-03 2.675012e-03 3.800807e-03 4.518330e-03 6.244047e-03 
    44.5                1.851818e-03 6.829940e-04 3.577948e-05 2.110220e-03 5.772358e-04 3.191437e-06 4.139877e-05 1.592362e-03 1.572133e-03 2.229793e-03 2.701833e-03 3.709709e-03 
    45.5                1.035456e-03 2.820463e-04 1.634458e-05 1.068812e-03 2.915329e-04 1.685827e-06 1.973344e-05 8.079828e-04 7.992833e-04 1.126874e-03 1.400342e-03 1.905702e-03 
    46.5                4.846771e-04 8.237342e-05 6.467189e-06 4.320039e-04 1.176918e-04 7.532440e-07 8.137585e-06 3.341498e-04 3.319206e-04 4.551945e-04 5.991126e-04 7.985548e-04 
    47.5                1.678291e-04 1.596271e-05 2.042202e-06 1.269686e-04 3.459707e-05 2.606447e-07 2.667344e-06 1.028024e-04 1.027036e-04 1.339249e-04 1.926259e-04 2.490699e-04 
    48.5                4.068025e-05 1.399392e-06 4.514965e-07 2.556047e-05 6.967448e-06 6.365356e-08 6.121827e-07 2.209669e-05 2.224417e-05 2.700349e-05 4.365872e-05 5.433437e-05 
    49.5                5.703730e-06 1.192368e-08 6.379076e-08 2.752170e-06 7.526214e-07 9.387691e-09 8.890325e-08 2.735737e-06 2.786503e-06 2.924832e-06 5.838221e-06 6.824942e-06 
    50.5                1.670489e-07 0.000000e+00 2.061641e-09 5.231155e-08 1.445719e-08 3.151995e-10 2.985793e-09 7.155496e-08 7.321916e-08 5.657772e-08 1.681647e-07 1.804153e-07 
    51.5                0.000000e+00 0.000000e+00 0.000000e+00 0.000000e+00 0.000000e+00 0.000000e+00 0.000000e+00 0.000000e+00 0.000000e+00 0.000000e+00 0.000000e+00 0.000000e+00 
    52.5                0.000000e+00 0.000000e+00 0.000000e+00 0.000000e+00 0.000000e+00 0.000000e+00 0.000000e+00 0.000000e+00 0.000000e+00 0.000000e+00 0.000000e+00 0.000000e+00 
    53.5                0.000000e+00 0.000000e+00 0.000000e+00 0.000000e+00 0.000000e+00 0.000000e+00 0.000000e+00 0.000000e+00 0.000000e+00 0.000000e+00 0.000000e+00 0.000000e+00 
    54.5                0.000000e+00 0.000000e+00 0.000000e+00 0.000000e+00 0.000000e+00 0.000000e+00 0.000000e+00 0.000000e+00 0.000000e+00 0.000000e+00 0.000000e+00 0.000000e+00 
    55.5                0.000000e+00 0.000000e+00 0.000000e+00 0.000000e+00 0.000000e+00 0.000000e+00 0.000000e+00 0.000000e+00 0.000000e+00 0.000000e+00 0.000000e+00 0.000000e+00 
    56.5                0.000000e+00 0.000000e+00 0.000000e+00 0.000000e+00 0.000000e+00 0.000000e+00 0.000000e+00 0.000000e+00 0.000000e+00 0.000000e+00 0.000000e+00 0.000000e+00 
    57.5                0.000000e+00 0.000000e+00 0.000000e+00 0.000000e+00 0.000000e+00 0.000000e+00 0.000000e+00 0.000000e+00 0.000000e+00 0.000000e+00 0.000000e+00 0.000000e+00 
    58.5                0.000000e+00 0.000000e+00 0.000000e+00 0.000000e+00 0.000000e+00 0.000000e+00 0.000000e+00 0.000000e+00 0.000000e+00 0.000000e+00 0.000000e+00 0.000000e+00 
    59.5                0.000000e+00 0.000000e+00 0.000000e+00 0.000000e+00 0.000000e+00 0.000000e+00 0.000000e+00 0.000000e+00 0.000000e+00 0.000000e+00 0.000000e+00 0.000000e+00 
    60.5                0.000000e+00 0.000000e+00 0.000000e+00 0.000000e+00 0.000000e+00 0.000000e+00 0.000000e+00 0.000000e+00 0.000000e+00 0.000000e+00 0.000000e+00 0.000000e+00 
    61.5                0.000000e+00 0.000000e+00 0.000000e+00 0.000000e+00 0.000000e+00 0.000000e+00 0.000000e+00 0.000000e+00 0.000000e+00 0.000000e+00 0.000000e+00 0.000000e+00 
    62.5                0.000000e+00 0.000000e+00 0.000000e+00 0.000000e+00 0.000000e+00 0.000000e+00 0.000000e+00 0.000000e+00 0.000000e+00 0.000000e+00 0.000000e+00 0.000000e+00 
    63.5                0.000000e+00 0.000000e+00 0.000000e+00 0.000000e+00 0.000000e+00 0.000000e+00 0.000000e+00 0.000000e+00 0.000000e+00 0.000000e+00 0.000000e+00 0.000000e+00 
    64.5                0.000000e+00 0.000000e+00 0.000000e+00 0.000000e+00 0.000000e+00 0.000000e+00 0.000000e+00 0.000000e+00 0.000000e+00 0.000000e+00 0.000000e+00 0.000000e+00 
    65.5                0.000000e+00 0.000000e+00 0.000000e+00 0.000000e+00 0.000000e+00 0.000000e+00 0.000000e+00 0.000000e+00 0.000000e+00 0.000000e+00 0.000000e+00 0.000000e+00 
    66.5                0.000000e+00 0.000000e+00 0.000000e+00 0.000000e+00 0.000000e+00 0.000000e+00 0.000000e+00 0.000000e+00 0.000000e+00 0.000000e+00 0.000000e+00 0.000000e+00 
    67.5                0.000000e+00 0.000000e+00 0.000000e+00 0.000000e+00 0.000000e+00 0.000000e+00 0.000000e+00 0.000000e+00 0.000000e+00 0.000000e+00 0.000000e+00 0.000000e+00 
    68.5                0.000000e+00 0.000000e+00 0.000000e+00 0.000000e+00 0.000000e+00 0.000000e+00 0.000000e+00 0.000000e+00 0.000000e+00 0.000000e+00 0.000000e+00 0.000000e+00 
    69.5                0.000000e+00 0.000000e+00 0.000000e+00 0.000000e+00 0.000000e+00 0.000000e+00 0.000000e+00 0.000000e+00 0.000000e+00 0.000000e+00 0.000000e+00 0.000000e+00 
    70.5                0.000000e+00 0.000000e+00 0.000000e+00 0.000000e+00 0.000000e+00 0.000000e+00 0.000000e+00 0.000000e+00 0.000000e+00 0.000000e+00 0.000000e+00 0.000000e+00 
    71.5                0.000000e+00 0.000000e+00 0.000000e+00 0.000000e+00 0.000000e+00 0.000000e+00 0.000000e+00 0.000000e+00 0.000000e+00 0.000000e+00 0.000000e+00 0.000000e+00 
    72.5                0.000000e+00 0.000000e+00 0.000000e+00 0.000000e+00 0.000000e+00 0.000000e+00 0.000000e+00 0.000000e+00 0.000000e+00 0.000000e+00 0.000000e+00 0.000000e+00 
    73.5                0.000000e+00 0.000000e+00 0.000000e+00 0.000000e+00 0.000000e+00 0.000000e+00 0.000000e+00 0.000000e+00 0.000000e+00 0.000000e+00 0.000000e+00 0.000000e+00 
    74.5                0.000000e+00 0.000000e+00 0.000000e+00 0.000000e+00 0.000000e+00 0.000000e+00 0.000000e+00 0.000000e+00 0.000000e+00 0.000000e+00 0.000000e+00 0.000000e+00 
    75.5                0.000000e+00 0.000000e+00 0.000000e+00 0.000000e+00 0.000000e+00 0.000000e+00 0.000000e+00 0.000000e+00 0.000000e+00 0.000000e+00 0.000000e+00 0.000000e+00 
    76.5                0.000000e+00 0.000000e+00 0.000000e+00 0.000000e+00 0.000000e+00 0.000000e+00 0.000000e+00 0.000000e+00 0.000000e+00 0.000000e+00 0.000000e+00 0.000000e+00 
    77.5                0.000000e+00 0.000000e+00 0.000000e+00 0.000000e+00 0.000000e+00 0.000000e+00 0.000000e+00 0.000000e+00 0.000000e+00 0.000000e+00 0.000000e+00 0.000000e+00 
    78.5                0.000000e+00 0.000000e+00 0.000000e+00 0.000000e+00 0.000000e+00 0.000000e+00 0.000000e+00 0.000000e+00 0.000000e+00 0.000000e+00 0.000000e+00 0.000000e+00 
    79.5                0.000000e+00 0.000000e+00 0.000000e+00 0.000000e+00 0.000000e+00 0.000000e+00 0.000000e+00 0.000000e+00 0.000000e+00 0.000000e+00 0.000000e+00 0.000000e+00 


