# 80 rows of flux data
# 12 columns of flux data
# 
# total cross-sectional flux  2.298121e+00 /m^2/yr
#
#                             +x ram      -x wake      +y port -y starboard    +z zenith     -z nadir        Earth          Sun     anti-Sun      rot (x)      rot (y)      rot (z) 
# average speed (km/s)         24.48        24.48        17.17        24.74        24.47        23.41        24.47        25.00        25.00        24.00        24.47        24.28 
# total flux (#/m2/yr)  6.994270e-01 6.988627e-01 1.024442e-01 7.920659e-01 1.171959e+00 6.119702e-04 6.926999e-01 1.001643e+00 1.001888e+00 1.559847e+00 2.028792e+00 1.822798e+00 
# velocity (km/s)
     0.5                0.000000e+00 0.000000e+00 0.000000e+00 0.000000e+00 0.000000e+00 0.000000e+00 0.000000e+00 0.000000e+00 0.000000e+00 0.000000e+00 0.000000e+00 0.000000e+00 
     1.5                0.000000e+00 0.000000e+00 0.000000e+00 0.000000e+00 0.000000e+00 0.000000e+00 0.000000e+00 0.000000e+00 0.000000e+00 0.000000e+00 0.000000e+00 0.000000e+00 
     2.5                2.213858e-07 2.384428e-07 4.381984e-07 0.000000e+00 2.148311e-08 2.429702e-09 2.204708e-07 1.791993e-07 1.661744e-07 4.397415e-07 4.632576e-07 7.071272e-07 
     3.5                3.697986e-05 3.729149e-05 2.380799e-05 5.245472e-06 1.758840e-05 7.721529e-08 3.683037e-05 2.031746e-05 2.020705e-05 3.855992e-05 7.789482e-05 8.531109e-05 
     4.5                2.429686e-04 2.442440e-04 1.240574e-04 1.318013e-04 2.518565e-04 3.733968e-07 2.421249e-04 1.407525e-04 1.406334e-04 3.976047e-04 5.944587e-04 5.924967e-04 
     5.5                9.060662e-04 9.111864e-04 4.774373e-04 6.178277e-04 1.093935e-03 1.230762e-06 9.028798e-04 5.965847e-04 5.956613e-04 1.721328e-03 2.321250e-03 2.302360e-03 
     6.5                2.275954e-03 2.280756e-03 1.013196e-03 2.049016e-03 3.374476e-03 2.593918e-06 2.267310e-03 1.759855e-03 1.758915e-03 5.055699e-03 6.268628e-03 5.990067e-03 
     7.5                4.002669e-03 4.008324e-03 1.850995e-03 3.829186e-03 6.240155e-03 4.660270e-06 3.986277e-03 3.413280e-03 3.413016e-03 9.378798e-03 1.126033e-02 1.076383e-02 
     8.5                6.602725e-03 6.606205e-03 2.705572e-03 6.530880e-03 1.042091e-02 7.565211e-06 6.573838e-03 5.841436e-03 5.843095e-03 1.546066e-02 1.867887e-02 1.766117e-02 
     9.5                9.748924e-03 9.752022e-03 3.932259e-03 9.976223e-03 1.580456e-02 1.062274e-05 9.703214e-03 9.043909e-03 9.045635e-03 2.333996e-02 2.785494e-02 2.626541e-02 
    10.5                1.238333e-02 1.237623e-02 5.209405e-03 1.350241e-02 2.126356e-02 1.329872e-05 1.231953e-02 1.270549e-02 1.270814e-02 3.144602e-02 3.625494e-02 3.412771e-02 
    11.5                1.459622e-02 1.459186e-02 6.373095e-03 1.592673e-02 2.519844e-02 1.591242e-05 1.450725e-02 1.648891e-02 1.649052e-02 3.739012e-02 4.285320e-02 4.043825e-02 
    12.5                1.635894e-02 1.635122e-02 6.946648e-03 1.831825e-02 2.881640e-02 1.727920e-05 1.624651e-02 1.996307e-02 1.996802e-02 4.249394e-02 4.847717e-02 4.560403e-02 
    13.5                1.760059e-02 1.758807e-02 7.324228e-03 1.960463e-02 3.098821e-02 1.894247e-05 1.746531e-02 2.270822e-02 2.271321e-02 4.535486e-02 5.216782e-02 4.889872e-02 
    14.5                1.944546e-02 1.943349e-02 7.231143e-03 2.142198e-02 3.367444e-02 2.034828e-05 1.928318e-02 2.593435e-02 2.593956e-02 4.863981e-02 5.723759e-02 5.326940e-02 
    15.5                2.112951e-02 2.111931e-02 6.851766e-03 2.336798e-02 3.627984e-02 2.149945e-05 2.094323e-02 2.899726e-02 2.900335e-02 5.169650e-02 6.199756e-02 5.727999e-02 
    16.5                2.284241e-02 2.282701e-02 6.548868e-03 2.543420e-02 3.912670e-02 2.235497e-05 2.263065e-02 3.210791e-02 3.211537e-02 5.503584e-02 6.692458e-02 6.141799e-02 
    17.5                2.414492e-02 2.413181e-02 5.968186e-03 2.699796e-02 4.105058e-02 2.310700e-05 2.391323e-02 3.456398e-02 3.457179e-02 5.708724e-02 7.052530e-02 6.435218e-02 
    18.5                2.541139e-02 2.539804e-02 5.356822e-03 2.842132e-02 4.278450e-02 2.377995e-05 2.515918e-02 3.702262e-02 3.703043e-02 5.881489e-02 7.391953e-02 6.708994e-02 
    19.5                2.646891e-02 2.645053e-02 4.908173e-03 2.978397e-02 4.451057e-02 2.407811e-05 2.619880e-02 3.915013e-02 3.916044e-02 6.063317e-02 7.692808e-02 6.953657e-02 
    20.5                2.701166e-02 2.699343e-02 4.359467e-03 3.050386e-02 4.530579e-02 2.421264e-05 2.673111e-02 4.040717e-02 4.041683e-02 6.117770e-02 7.843519e-02 7.061272e-02 
    21.5                2.761033e-02 2.759510e-02 3.814087e-03 3.107925e-02 4.583939e-02 2.454064e-05 2.732046e-02 4.146085e-02 4.147221e-02 6.138575e-02 7.982197e-02 7.166080e-02 
    22.5                2.856437e-02 2.854639e-02 3.509007e-03 3.210300e-02 4.719699e-02 2.504472e-05 2.826166e-02 4.304406e-02 4.305448e-02 6.274797e-02 8.240657e-02 7.380859e-02 
    23.5                2.917098e-02 2.915219e-02 3.020338e-03 3.300049e-02 4.824318e-02 2.499645e-05 2.885937e-02 4.420967e-02 4.422039e-02 6.365112e-02 8.417421e-02 7.513875e-02 
    24.5                2.930773e-02 2.928658e-02 2.622646e-03 3.320981e-02 4.837477e-02 2.484042e-05 2.899300e-02 4.449486e-02 4.450542e-02 6.340546e-02 8.449663e-02 7.526256e-02 
    25.5                2.934316e-02 2.932229e-02 2.237626e-03 3.328974e-02 4.833808e-02 2.456293e-05 2.902855e-02 4.452141e-02 4.453179e-02 6.292463e-02 8.452213e-02 7.512377e-02 
    26.5                2.915395e-02 2.913206e-02 1.901521e-03 3.316081e-02 4.802763e-02 2.403894e-05 2.884168e-02 4.424498e-02 4.425563e-02 6.211399e-02 8.396844e-02 7.449075e-02 
    27.5                2.839947e-02 2.837479e-02 1.615683e-03 3.247653e-02 4.695443e-02 2.311088e-05 2.809596e-02 4.313423e-02 4.314682e-02 6.038493e-02 8.191635e-02 7.252416e-02 
    28.5                2.756173e-02 2.753882e-02 1.366809e-03 3.144398e-02 4.539224e-02 2.233076e-05 2.726874e-02 4.170744e-02 4.171649e-02 5.809008e-02 7.936826e-02 7.021266e-02 
    29.5                2.662229e-02 2.659765e-02 1.150413e-03 3.047210e-02 4.392531e-02 2.128869e-05 2.634099e-02 4.020632e-02 4.021739e-02 5.595341e-02 7.670619e-02 6.776692e-02 
    30.5                2.534115e-02 2.531781e-02 9.369443e-04 2.908028e-02 4.186336e-02 2.012334e-05 2.507569e-02 3.817280e-02 3.818139e-02 5.309163e-02 7.305571e-02 6.446421e-02 
    31.5                2.393981e-02 2.391514e-02 7.520789e-04 2.753323e-02 3.959147e-02 1.882440e-05 2.369077e-02 3.592618e-02 3.593637e-02 4.998389e-02 6.904102e-02 6.085367e-02 
    32.5                2.232765e-02 2.230456e-02 5.941078e-04 2.575328e-02 3.699725e-02 1.739872e-05 2.209782e-02 3.336020e-02 3.336933e-02 4.651032e-02 6.444067e-02 5.673722e-02 
    33.5                2.050603e-02 2.048045e-02 4.720416e-04 2.376775e-02 3.412083e-02 1.576051e-05 2.029746e-02 3.049461e-02 3.050245e-02 4.274192e-02 5.927633e-02 5.212944e-02 
    34.5                1.843747e-02 1.841492e-02 3.713803e-04 2.146453e-02 3.079547e-02 1.405976e-05 1.825294e-02 2.727985e-02 2.728659e-02 3.846790e-02 5.337993e-02 4.690087e-02 
    35.5                1.636125e-02 1.633863e-02 2.784155e-04 1.911962e-02 2.741713e-02 1.235202e-05 1.619954e-02 2.407675e-02 2.408450e-02 3.414353e-02 4.742758e-02 4.163174e-02 
    36.5                1.428464e-02 1.426418e-02 2.011619e-04 1.674931e-02 2.400363e-02 1.070294e-05 1.414596e-02 2.088174e-02 2.088659e-02 2.980477e-02 4.145486e-02 3.635845e-02 
    37.5                1.229493e-02 1.227613e-02 1.437381e-04 1.447842e-02 2.074062e-02 9.100329e-06 1.217756e-02 1.784463e-02 1.785004e-02 2.568377e-02 3.573265e-02 3.131266e-02 
    38.5                1.034992e-02 1.033207e-02 9.866958e-05 1.225200e-02 1.754488e-02 7.554642e-06 1.025279e-02 1.492198e-02 1.492678e-02 2.167468e-02 3.013892e-02 2.638487e-02 
    39.5                8.465600e-03 8.450012e-03 6.412120e-05 1.011922e-02 1.448638e-02 6.052258e-06 8.387846e-03 1.213978e-02 1.214357e-02 1.785647e-02 2.474445e-02 2.163081e-02 
    40.5                6.628761e-03 6.614413e-03 3.990209e-05 8.016720e-03 1.147424e-02 4.629200e-06 6.569182e-03 9.454928e-03 9.457927e-03 1.411598e-02 1.946702e-02 1.698879e-02 
    41.5                4.943322e-03 4.931360e-03 2.336462e-05 6.061894e-03 8.674938e-03 3.358900e-06 4.899965e-03 7.021323e-03 7.023515e-03 1.065430e-02 1.460042e-02 1.271738e-02 
    42.5                3.511126e-03 3.502251e-03 1.292371e-05 4.352974e-03 6.228723e-03 2.335270e-06 3.481040e-03 4.959320e-03 4.960939e-03 7.638935e-03 1.041847e-02 9.060974e-03 
    43.5                2.374143e-03 2.366893e-03 6.803547e-06 2.992619e-03 4.281909e-03 1.517517e-06 2.354255e-03 3.340228e-03 3.341666e-03 5.245272e-03 7.092504e-03 6.154941e-03 
    44.5                1.457317e-03 1.452440e-03 3.113545e-06 1.897669e-03 2.715182e-03 8.721294e-07 1.445488e-03 2.060020e-03 2.060796e-03 3.322661e-03 4.415371e-03 3.815723e-03 
    45.5                7.822595e-04 7.790925e-04 1.242748e-06 1.058158e-03 1.514012e-03 4.269173e-07 7.761449e-04 1.114152e-03 1.114501e-03 1.851204e-03 2.410032e-03 2.072519e-03 
    46.5                3.431633e-04 3.414340e-04 4.023833e-07 4.931628e-04 7.056663e-04 1.598923e-07 3.406195e-04 4.990096e-04 4.993408e-04 8.622874e-04 1.086740e-03 9.272626e-04 
    47.5                1.081732e-04 1.075565e-04 8.962679e-08 1.693349e-04 2.423110e-04 4.135499e-08 1.074221e-04 1.634837e-04 1.635526e-04 2.959505e-04 3.575087e-04 3.015951e-04 
    48.5                2.358362e-05 2.343589e-05 1.258477e-08 4.073619e-05 5.829607e-05 6.256756e-09 2.343402e-05 3.736908e-05 3.740349e-05 7.117271e-05 8.198776e-05 6.826423e-05 
    49.5                2.781683e-06 2.767690e-06 4.160892e-10 5.645377e-06 8.079766e-06 2.037682e-10 2.767024e-06 4.836611e-06 4.846195e-06 9.860841e-06 1.056105e-05 8.606846e-06 
    50.5                5.339553e-08 5.381363e-08 0.000000e+00 1.617818e-07 2.315165e-07 0.000000e+00 5.333030e-08 1.238230e-07 1.238932e-07 2.825122e-07 2.640601e-07 2.038684e-07 
    51.5                0.000000e+00 0.000000e+00 0.000000e+00 0.000000e+00 0.000000e+00 0.000000e+00 0.000000e+00 0.000000e+00 0.000000e+00 0.000000e+00 0.000000e+00 0.000000e+00 
    52.5                0.000000e+00 0.000000e+00 0.000000e+00 0.000000e+00 0.000000e+00 0.000000e+00 0.000000e+00 0.000000e+00 0.000000e+00 0.000000e+00 0.000000e+00 0.000000e+00 
    53.5                0.000000e+00 0.000000e+00 0.000000e+00 0.000000e+00 0.000000e+00 0.000000e+00 0.000000e+00 0.000000e+00 0.000000e+00 0.000000e+00 0.000000e+00 0.000000e+00 
    54.5                0.000000e+00 0.000000e+00 0.000000e+00 0.000000e+00 0.000000e+00 0.000000e+00 0.000000e+00 0.000000e+00 0.000000e+00 0.000000e+00 0.000000e+00 0.000000e+00 
    55.5                0.000000e+00 0.000000e+00 0.000000e+00 0.000000e+00 0.000000e+00 0.000000e+00 0.000000e+00 0.000000e+00 0.000000e+00 0.000000e+00 0.000000e+00 0.000000e+00 
    56.5                0.000000e+00 0.000000e+00 0.000000e+00 0.000000e+00 0.000000e+00 0.000000e+00 0.000000e+00 0.000000e+00 0.000000e+00 0.000000e+00 0.000000e+00 0.000000e+00 
    57.5                0.000000e+00 0.000000e+00 0.000000e+00 0.000000e+00 0.000000e+00 0.000000e+00 0.000000e+00 0.000000e+00 0.000000e+00 0.000000e+00 0.000000e+00 0.000000e+00 
    58.5                0.000000e+00 0.000000e+00 0.000000e+00 0.000000e+00 0.000000e+00 0.000000e+00 0.000000e+00 0.000000e+00 0.000000e+00 0.000000e+00 0.000000e+00 0.000000e+00 
    59.5                0.000000e+00 0.000000e+00 0.000000e+00 0.000000e+00 0.000000e+00 0.000000e+00 0.000000e+00 0.000000e+00 0.000000e+00 0.000000e+00 0.000000e+00 0.000000e+00 
    60.5                0.000000e+00 0.000000e+00 0.000000e+00 0.000000e+00 0.000000e+00 0.000000e+00 0.000000e+00 0.000000e+00 0.000000e+00 0.000000e+00 0.000000e+00 0.000000e+00 
    61.5                0.000000e+00 0.000000e+00 0.000000e+00 0.000000e+00 0.000000e+00 0.000000e+00 0.000000e+00 0.000000e+00 0.000000e+00 0.000000e+00 0.000000e+00 0.000000e+00 
    62.5                0.000000e+00 0.000000e+00 0.000000e+00 0.000000e+00 0.000000e+00 0.000000e+00 0.000000e+00 0.000000e+00 0.000000e+00 0.000000e+00 0.000000e+00 0.000000e+00 
    63.5                0.000000e+00 0.000000e+00 0.000000e+00 0.000000e+00 0.000000e+00 0.000000e+00 0.000000e+00 0.000000e+00 0.000000e+00 0.000000e+00 0.000000e+00 0.000000e+00 
    64.5                0.000000e+00 0.000000e+00 0.000000e+00 0.000000e+00 0.000000e+00 0.000000e+00 0.000000e+00 0.000000e+00 0.000000e+00 0.000000e+00 0.000000e+00 0.000000e+00 
    65.5                0.000000e+00 0.000000e+00 0.000000e+00 0.000000e+00 0.000000e+00 0.000000e+00 0.000000e+00 0.000000e+00 0.000000e+00 0.000000e+00 0.000000e+00 0.000000e+00 
    66.5                0.000000e+00 0.000000e+00 0.000000e+00 0.000000e+00 0.000000e+00 0.000000e+00 0.000000e+00 0.000000e+00 0.000000e+00 0.000000e+00 0.000000e+00 0.000000e+00 
    67.5                0.000000e+00 0.000000e+00 0.000000e+00 0.000000e+00 0.000000e+00 0.000000e+00 0.000000e+00 0.000000e+00 0.000000e+00 0.000000e+00 0.000000e+00 0.000000e+00 
    68.5                0.000000e+00 0.000000e+00 0.000000e+00 0.000000e+00 0.000000e+00 0.000000e+00 0.000000e+00 0.000000e+00 0.000000e+00 0.000000e+00 0.000000e+00 0.000000e+00 
    69.5                0.000000e+00 0.000000e+00 0.000000e+00 0.000000e+00 0.000000e+00 0.000000e+00 0.000000e+00 0.000000e+00 0.000000e+00 0.000000e+00 0.000000e+00 0.000000e+00 
    70.5                0.000000e+00 0.000000e+00 0.000000e+00 0.000000e+00 0.000000e+00 0.000000e+00 0.000000e+00 0.000000e+00 0.000000e+00 0.000000e+00 0.000000e+00 0.000000e+00 
    71.5                0.000000e+00 0.000000e+00 0.000000e+00 0.000000e+00 0.000000e+00 0.000000e+00 0.000000e+00 0.000000e+00 0.000000e+00 0.000000e+00 0.000000e+00 0.000000e+00 
    72.5                0.000000e+00 0.000000e+00 0.000000e+00 0.000000e+00 0.000000e+00 0.000000e+00 0.000000e+00 0.000000e+00 0.000000e+00 0.000000e+00 0.000000e+00 0.000000e+00 
    73.5                0.000000e+00 0.000000e+00 0.000000e+00 0.000000e+00 0.000000e+00 0.000000e+00 0.000000e+00 0.000000e+00 0.000000e+00 0.000000e+00 0.000000e+00 0.000000e+00 
    74.5                0.000000e+00 0.000000e+00 0.000000e+00 0.000000e+00 0.000000e+00 0.000000e+00 0.000000e+00 0.000000e+00 0.000000e+00 0.000000e+00 0.000000e+00 0.000000e+00 
    75.5                0.000000e+00 0.000000e+00 0.000000e+00 0.000000e+00 0.000000e+00 0.000000e+00 0.000000e+00 0.000000e+00 0.000000e+00 0.000000e+00 0.000000e+00 0.000000e+00 
    76.5                0.000000e+00 0.000000e+00 0.000000e+00 0.000000e+00 0.000000e+00 0.000000e+00 0.000000e+00 0.000000e+00 0.000000e+00 0.000000e+00 0.000000e+00 0.000000e+00 
    77.5                0.000000e+00 0.000000e+00 0.000000e+00 0.000000e+00 0.000000e+00 0.000000e+00 0.000000e+00 0.000000e+00 0.000000e+00 0.000000e+00 0.000000e+00 0.000000e+00 
    78.5                0.000000e+00 0.000000e+00 0.000000e+00 0.000000e+00 0.000000e+00 0.000000e+00 0.000000e+00 0.000000e+00 0.000000e+00 0.000000e+00 0.000000e+00 0.000000e+00 
    79.5                0.000000e+00 0.000000e+00 0.000000e+00 0.000000e+00 0.000000e+00 0.000000e+00 0.000000e+00 0.000000e+00 0.000000e+00 0.000000e+00 0.000000e+00 0.000000e+00 


