# 80 rows of flux data
# 12 columns of flux data
# 
# total cross-sectional flux  1.041931e+00 /m^2/yr
#
#                             +x ram      -x wake      +y port -y starboard    +z zenith     -z nadir        Earth          Sun     anti-Sun      rot (x)      rot (y)      rot (z) 
# average speed (km/s)         37.08        38.36        31.72        43.40        32.14        44.95        34.84        28.15        27.89        34.00        34.58        36.65 
# total flux (#/m2/yr)  2.575051e-01 2.161821e-01 3.349171e-01 1.725569e-01 5.787760e-01 2.650097e-04 1.627770e-01 1.694745e-01 1.674277e-01 8.627268e-01 8.229097e-01 7.689091e-01 
# velocity (km/s)
     0.5                0.000000e+00 0.000000e+00 0.000000e+00 0.000000e+00 0.000000e+00 0.000000e+00 0.000000e+00 0.000000e+00 0.000000e+00 0.000000e+00 0.000000e+00 0.000000e+00 
     1.5                0.000000e+00 0.000000e+00 0.000000e+00 0.000000e+00 0.000000e+00 0.000000e+00 0.000000e+00 0.000000e+00 0.000000e+00 0.000000e+00 0.000000e+00 0.000000e+00 
     2.5                3.167707e-05 1.190732e-04 8.671422e-05 8.564899e-05 1.553691e-04 6.600140e-08 4.843999e-05 8.328994e-05 8.241491e-05 2.577860e-04 2.415105e-04 2.541019e-04 
     3.5                3.625466e-04 4.743252e-04 4.012118e-04 4.643497e-04 7.639654e-04 4.520784e-07 2.279288e-04 4.498205e-04 4.299478e-04 1.287314e-03 1.260700e-03 1.338188e-03 
     4.5                9.616766e-04 8.443436e-04 8.558217e-04 9.465960e-04 1.655301e-03 1.079533e-06 4.705126e-04 9.858958e-04 9.606903e-04 2.736005e-03 2.726622e-03 2.836155e-03 
     5.5                1.613654e-03 1.252713e-03 1.428276e-03 1.400028e-03 2.738395e-03 1.726277e-06 7.589802e-04 1.611882e-03 1.589667e-03 4.406048e-03 4.404901e-03 4.472937e-03 
     6.5                2.279860e-03 1.623714e-03 2.145429e-03 1.794274e-03 4.027920e-03 2.273508e-06 1.082783e-03 2.246532e-03 2.236219e-03 6.300347e-03 6.234074e-03 6.158609e-03 
     7.5                2.845327e-03 1.988138e-03 2.915208e-03 2.078853e-03 5.380730e-03 2.722230e-06 1.410324e-03 2.824657e-03 2.825578e-03 8.196493e-03 8.032214e-03 7.713763e-03 
     8.5                3.357289e-03 2.323029e-03 3.677062e-03 2.300359e-03 6.704026e-03 3.036146e-06 1.715037e-03 3.357467e-03 3.365071e-03 1.000231e-02 9.736344e-03 9.147060e-03 
     9.5                3.772446e-03 2.579128e-03 4.411927e-03 2.459734e-03 7.966956e-03 3.253947e-06 1.996838e-03 3.835902e-03 3.840095e-03 1.169126e-02 1.126677e-02 1.037331e-02 
    10.5                4.106736e-03 2.880110e-03 5.144643e-03 2.545685e-03 9.196723e-03 3.430495e-06 2.267520e-03 4.289699e-03 4.285410e-03 1.329176e-02 1.274322e-02 1.151340e-02 
    11.5                4.472236e-03 3.104354e-03 5.997339e-03 2.621192e-03 1.064444e-02 3.518067e-06 2.544136e-03 4.750648e-03 4.739837e-03 1.513091e-02 1.436997e-02 1.270323e-02 
    12.5                4.737774e-03 3.278675e-03 6.653283e-03 2.607336e-03 1.173043e-02 3.521727e-06 2.780547e-03 5.073047e-03 5.060038e-03 1.648218e-02 1.557502e-02 1.354972e-02 
    13.5                4.898906e-03 3.313588e-03 7.198617e-03 2.547756e-03 1.267815e-02 3.401089e-06 2.882107e-03 5.205463e-03 5.191401e-03 1.756125e-02 1.652069e-02 1.409322e-02 
    14.5                4.802985e-03 3.435893e-03 7.513062e-03 2.481338e-03 1.319323e-02 3.316626e-06 2.943969e-03 5.261220e-03 5.243439e-03 1.813383e-02 1.697953e-02 1.430972e-02 
    15.5                4.958057e-03 3.496952e-03 8.114665e-03 2.398847e-03 1.419015e-02 3.238416e-06 3.105925e-03 5.373733e-03 5.357460e-03 1.929650e-02 1.796564e-02 1.488716e-02 
    16.5                4.913241e-03 3.547295e-03 8.278087e-03 2.333690e-03 1.443784e-02 3.148581e-06 3.136641e-03 5.388117e-03 5.372017e-03 1.955491e-02 1.816850e-02 1.496462e-02 
    17.5                4.929238e-03 3.557826e-03 8.525915e-03 2.247118e-03 1.482196e-02 3.036015e-06 3.208344e-03 5.354975e-03 5.338986e-03 1.997692e-02 1.850212e-02 1.511819e-02 
    18.5                4.894091e-03 3.618149e-03 8.785449e-03 2.138522e-03 1.523025e-02 2.858827e-06 3.278691e-03 5.312976e-03 5.296987e-03 2.040485e-02 1.884965e-02 1.525439e-02 
    19.5                4.851285e-03 3.600902e-03 8.874779e-03 2.047294e-03 1.531310e-02 2.741511e-06 3.336829e-03 5.200185e-03 5.183891e-03 2.048046e-02 1.884082e-02 1.518945e-02 
    20.5                4.776265e-03 3.546610e-03 8.765074e-03 1.905183e-03 1.510994e-02 2.587534e-06 3.299724e-03 5.012909e-03 4.997378e-03 2.013988e-02 1.854826e-02 1.488666e-02 
    21.5                4.625801e-03 3.594140e-03 8.839756e-03 1.816813e-03 1.519380e-02 2.423994e-06 3.321813e-03 4.872488e-03 4.857379e-03 2.019565e-02 1.852735e-02 1.479913e-02 
    22.5                4.689542e-03 3.518187e-03 8.989720e-03 1.721657e-03 1.540847e-02 2.291113e-06 3.390052e-03 4.747899e-03 4.734123e-03 2.041739e-02 1.868059e-02 1.483281e-02 
    23.5                4.469953e-03 3.376953e-03 8.524675e-03 1.583302e-03 1.458199e-02 2.128848e-06 3.233051e-03 4.446049e-03 4.434544e-03 1.930991e-02 1.769635e-02 1.405975e-02 
    24.5                4.212183e-03 3.293926e-03 8.182375e-03 1.464238e-03 1.396859e-02 1.918086e-06 3.143189e-03 4.179563e-03 4.168045e-03 1.849159e-02 1.691237e-02 1.342588e-02 
    25.5                4.118342e-03 3.208815e-03 8.000595e-03 1.376561e-03 1.363341e-02 1.882912e-06 3.089294e-03 3.953901e-03 3.943130e-03 1.803191e-02 1.647876e-02 1.306326e-02 
    26.5                3.943853e-03 3.182037e-03 7.722146e-03 1.317677e-03 1.312529e-02 1.798166e-06 3.042390e-03 3.746529e-03 3.735448e-03 1.740073e-02 1.588127e-02 1.263500e-02 
    27.5                3.879195e-03 3.054073e-03 7.436065e-03 1.223155e-03 1.258948e-02 1.653398e-06 2.995687e-03 3.539001e-03 3.529070e-03 1.671452e-02 1.525558e-02 1.217733e-02 
    28.5                3.701422e-03 2.984673e-03 7.132922e-03 1.115424e-03 1.202717e-02 1.460997e-06 2.918126e-03 3.274875e-03 3.266625e-03 1.597128e-02 1.458379e-02 1.166292e-02 
    29.5                3.559737e-03 2.767977e-03 6.775818e-03 1.009106e-03 1.137400e-02 1.276519e-06 2.802422e-03 2.967344e-03 2.960075e-03 1.510125e-02 1.377093e-02 1.101840e-02 
    30.5                3.296499e-03 2.696355e-03 6.471870e-03 9.012667e-04 1.082652e-02 1.182324e-06 2.676431e-03 2.748526e-03 2.742309e-03 1.434724e-02 1.307110e-02 1.042890e-02 
    31.5                3.185243e-03 2.686715e-03 6.294587e-03 8.313990e-04 1.048029e-02 1.058067e-06 2.674880e-03 2.581770e-03 2.576579e-03 1.391715e-02 1.266519e-02 1.014275e-02 
    32.5                3.097814e-03 2.579900e-03 5.940916e-03 7.939173e-04 9.841127e-03 9.179046e-07 2.586761e-03 2.368497e-03 2.363150e-03 1.312431e-02 1.196558e-02 9.683740e-03 
    33.5                3.006191e-03 2.638059e-03 5.771704e-03 7.849152e-04 9.504976e-03 8.834956e-07 2.590615e-03 2.188616e-03 2.183125e-03 1.274860e-02 1.163613e-02 9.518806e-03 
    34.5                3.060709e-03 2.638565e-03 5.842625e-03 7.487194e-04 9.553764e-03 8.223767e-07 2.666636e-03 2.101582e-03 2.097274e-03 1.283188e-02 1.169838e-02 9.591996e-03 
    35.5                2.945315e-03 2.546571e-03 5.440021e-03 7.408069e-04 8.791446e-03 8.068444e-07 2.572622e-03 1.963888e-03 1.959905e-03 1.192966e-02 1.090444e-02 9.110841e-03 
    36.5                2.852192e-03 2.600571e-03 5.329488e-03 7.623222e-04 8.571685e-03 8.754702e-07 2.572937e-03 1.835949e-03 1.831298e-03 1.170488e-02 1.068925e-02 9.019192e-03 
    37.5                2.973804e-03 2.678036e-03 5.425845e-03 7.777039e-04 8.651106e-03 9.126048e-07 2.659921e-03 1.778607e-03 1.774457e-03 1.186858e-02 1.088930e-02 9.264813e-03 
    38.5                2.890702e-03 2.877824e-03 5.375973e-03 8.736768e-04 8.452183e-03 1.117980e-06 2.726817e-03 1.708427e-03 1.703083e-03 1.177185e-02 1.080059e-02 9.391743e-03 
    39.5                3.118243e-03 2.769852e-03 5.391955e-03 9.435791e-04 8.380364e-03 1.222286e-06 2.813429e-03 1.658430e-03 1.652430e-03 1.180583e-02 1.082844e-02 9.560989e-03 
    40.5                3.064790e-03 2.856574e-03 5.310848e-03 9.236476e-04 8.216090e-03 1.157665e-06 2.801997e-03 1.590111e-03 1.584736e-03 1.160300e-02 1.071585e-02 9.514392e-03 
    41.5                3.096928e-03 3.157818e-03 5.393765e-03 1.092678e-03 8.263942e-03 1.231123e-06 2.934330e-03 1.573538e-03 1.566064e-03 1.185834e-02 1.098726e-02 9.973752e-03 
    42.5                3.380146e-03 3.067579e-03 5.336776e-03 1.287563e-03 8.071933e-03 1.588589e-06 3.005529e-03 1.569495e-03 1.559137e-03 1.183768e-02 1.099233e-02 1.024416e-02 
    43.5                3.287764e-03 3.249713e-03 5.141433e-03 1.358593e-03 7.700853e-03 1.733378e-06 2.952658e-03 1.524139e-03 1.512704e-03 1.145113e-02 1.078102e-02 1.021482e-02 
    44.5                3.453629e-03 3.577182e-03 5.427541e-03 1.650563e-03 8.020078e-03 2.656040e-06 3.208232e-03 1.578949e-03 1.564118e-03 1.221456e-02 1.141689e-02 1.106794e-02 
    45.5                3.807700e-03 3.562927e-03 5.547021e-03 1.745421e-03 8.035223e-03 3.157588e-06 3.351548e-03 1.584485e-03 1.570528e-03 1.242520e-02 1.169957e-02 1.150526e-02 
    46.5                3.729913e-03 3.667190e-03 5.428921e-03 1.903906e-03 7.856294e-03 3.716786e-06 3.329649e-03 1.552957e-03 1.535918e-03 1.232428e-02 1.160256e-02 1.156632e-02 
    47.5                3.881773e-03 3.925845e-03 5.323091e-03 2.278853e-03 7.866560e-03 4.254787e-06 3.291314e-03 1.580752e-03 1.554706e-03 1.254592e-02 1.195468e-02 1.209959e-02 
    48.5                3.996874e-03 4.337497e-03 5.231726e-03 2.924452e-03 7.907422e-03 5.912283e-06 3.291882e-03 1.641394e-03 1.602835e-03 1.305260e-02 1.244612e-02 1.294259e-02 
    49.5                4.461099e-03 4.775587e-03 5.353586e-03 3.502722e-03 8.208297e-03 7.504580e-06 3.422597e-03 1.719724e-03 1.670646e-03 1.389234e-02 1.342929e-02 1.419807e-02 
    50.5                4.759700e-03 5.513982e-03 5.455632e-03 4.358801e-03 8.604219e-03 9.105559e-06 3.554675e-03 1.823372e-03 1.758699e-03 1.500461e-02 1.461526e-02 1.576462e-02 
    51.5                5.461729e-03 6.082462e-03 5.421841e-03 5.581057e-03 9.123350e-03 1.009553e-05 3.583757e-03 1.924616e-03 1.836100e-03 1.634580e-02 1.608160e-02 1.768791e-02 
    52.5                6.176846e-03 6.101656e-03 5.164717e-03 6.369986e-03 9.162105e-03 1.102131e-05 3.455270e-03 1.985014e-03 1.881710e-03 1.676863e-02 1.675856e-02 1.867803e-02 
    53.5                6.305578e-03 6.195849e-03 4.850973e-03 6.783077e-03 8.937586e-03 1.144305e-05 3.283806e-03 2.010635e-03 1.900832e-03 1.663405e-02 1.681604e-02 1.893601e-02 
    54.5                6.431832e-03 5.842712e-03 4.531869e-03 6.916284e-03 8.573590e-03 1.141669e-05 3.101899e-03 1.993735e-03 1.882645e-03 1.617275e-02 1.639071e-02 1.861746e-02 
    55.5                6.371474e-03 5.899368e-03 4.274711e-03 6.917425e-03 8.248121e-03 1.166950e-05 2.941054e-03 1.966169e-03 1.856324e-03 1.569637e-02 1.616547e-02 1.840605e-02 
    56.5                6.250473e-03 5.633163e-03 4.025761e-03 6.973912e-03 7.911626e-03 1.203585e-05 2.803175e-03 1.923052e-03 1.813781e-03 1.527579e-02 1.563026e-02 1.795516e-02 
    57.5                6.020380e-03 5.156045e-03 3.578315e-03 6.674596e-03 7.249481e-03 1.161293e-05 2.502335e-03 1.827160e-03 1.723775e-03 1.413196e-02 1.458258e-02 1.682081e-02 
    58.5                5.544313e-03 4.951932e-03 3.110391e-03 6.449379e-03 6.646037e-03 1.068728e-05 2.183400e-03 1.693363e-03 1.593648e-03 1.306457e-02 1.359190e-02 1.572948e-02 
    59.5                5.254247e-03 4.730931e-03 2.787521e-03 6.318925e-03 6.192592e-03 1.040511e-05 1.975731e-03 1.560023e-03 1.463047e-03 1.232979e-02 1.286211e-02 1.496911e-02 
    60.5                5.073882e-03 4.303941e-03 2.451288e-03 6.037914e-03 5.694969e-03 9.685041e-06 1.743190e-03 1.396346e-03 1.304381e-03 1.140799e-02 1.200306e-02 1.401121e-02 
    61.5                4.602391e-03 3.759488e-03 1.970066e-03 5.667657e-03 5.011577e-03 8.629538e-06 1.408318e-03 1.225452e-03 1.138948e-03 1.014378e-02 1.067834e-02 1.254951e-02 
    62.5                4.249194e-03 3.078784e-03 1.566389e-03 4.944488e-03 4.236710e-03 7.326032e-06 1.118317e-03 1.045447e-03 9.706810e-04 8.595705e-03 9.247612e-03 1.084815e-02 
    63.5                3.482110e-03 2.514714e-03 1.178627e-03 4.140341e-03 3.397216e-03 6.155900e-06 8.476090e-04 8.596542e-04 7.977663e-04 6.964248e-03 7.534579e-03 8.871399e-03 
    64.5                2.867219e-03 2.014928e-03 8.824162e-04 3.417161e-03 2.729631e-03 4.865173e-06 6.328615e-04 6.811748e-04 6.304427e-04 5.604962e-03 6.111828e-03 7.197693e-03 
    65.5                2.280907e-03 1.538261e-03 6.122099e-04 2.754207e-03 2.117292e-03 3.625566e-06 4.385463e-04 5.141349e-04 4.734413e-04 4.355705e-03 4.772902e-03 5.631078e-03 
    66.5                1.828390e-03 1.093588e-03 4.129535e-04 2.123848e-03 1.585481e-03 2.609620e-06 2.948847e-04 3.688930e-04 3.377628e-04 3.261007e-03 3.629015e-03 4.276387e-03 
    67.5                1.341169e-03 6.999927e-04 2.519596e-04 1.489360e-03 1.081125e-03 1.714763e-06 1.794067e-04 2.402679e-04 2.187431e-04 2.221690e-03 2.518246e-03 2.965166e-03 
    68.5                9.023606e-04 3.916853e-04 1.364756e-04 9.559632e-04 6.719403e-04 1.036683e-06 9.728259e-05 1.387267e-04 1.250570e-04 1.379936e-03 1.587775e-03 1.871907e-03 
    69.5                5.521551e-04 1.728649e-04 6.500149e-05 5.291772e-04 3.624632e-04 5.624225e-07 4.657128e-05 6.790342e-05 6.048431e-05 7.432608e-04 8.795742e-04 1.034716e-03 
    70.5                2.767082e-04 4.392596e-05 2.416233e-05 2.252562e-04 1.510594e-04 2.466185e-07 1.737406e-05 2.589211e-05 2.279650e-05 3.089262e-04 3.830450e-04 4.480784e-04 
    71.5                1.004342e-04 5.740830e-06 6.669896e-06 6.080904e-05 4.082934e-05 8.728486e-08 4.858706e-06 6.575784e-06 5.770002e-06 8.320992e-05 1.208416e-04 1.370394e-04 
    72.5                1.763770e-05 1.237692e-07 8.123007e-07 8.448519e-06 5.545610e-06 1.591119e-08 6.145559e-07 9.267041e-07 8.199621e-07 1.128344e-05 1.948295e-05 2.154947e-05 
    73.5                1.371706e-06 0.000000e+00 2.613526e-08 4.292710e-07 2.643345e-07 1.481448e-09 2.327872e-08 3.985017e-08 3.459496e-08 5.417216e-07 1.417264e-06 1.490058e-06 
    74.5                0.000000e+00 0.000000e+00 0.000000e+00 0.000000e+00 0.000000e+00 0.000000e+00 0.000000e+00 0.000000e+00 0.000000e+00 0.000000e+00 0.000000e+00 0.000000e+00 
    75.5                0.000000e+00 0.000000e+00 0.000000e+00 0.000000e+00 0.000000e+00 0.000000e+00 0.000000e+00 0.000000e+00 0.000000e+00 0.000000e+00 0.000000e+00 0.000000e+00 
    76.5                0.000000e+00 0.000000e+00 0.000000e+00 0.000000e+00 0.000000e+00 0.000000e+00 0.000000e+00 0.000000e+00 0.000000e+00 0.000000e+00 0.000000e+00 0.000000e+00 
    77.5                0.000000e+00 0.000000e+00 0.000000e+00 0.000000e+00 0.000000e+00 0.000000e+00 0.000000e+00 0.000000e+00 0.000000e+00 0.000000e+00 0.000000e+00 0.000000e+00 
    78.5                0.000000e+00 0.000000e+00 0.000000e+00 0.000000e+00 0.000000e+00 0.000000e+00 0.000000e+00 0.000000e+00 0.000000e+00 0.000000e+00 0.000000e+00 0.000000e+00 
    79.5                0.000000e+00 0.000000e+00 0.000000e+00 0.000000e+00 0.000000e+00 0.000000e+00 0.000000e+00 0.000000e+00 0.000000e+00 0.000000e+00 0.000000e+00 0.000000e+00 


