# 80 rows of flux data
# 12 columns of flux data
# 
# total cross-sectional flux  9.905450e-01 /m^2/yr
#
#                             +x ram      -x wake      +y port -y starboard    +z zenith     -z nadir        Earth          Sun     anti-Sun      rot (x)      rot (y)      rot (z) 
# average speed (km/s)         37.74        37.76        30.81        32.69        37.99        30.64        37.77        28.25        28.25        33.90        37.85        33.95 
# total flux (#/m2/yr)  2.274128e-01 2.273543e-01 3.202646e-01 2.999066e-01 4.256148e-01 3.862666e-04 2.269183e-01 1.546189e-01 1.545327e-01 8.167573e-01 6.955767e-01 8.316493e-01 
# velocity (km/s)
     0.5                0.000000e+00 0.000000e+00 0.000000e+00 0.000000e+00 0.000000e+00 0.000000e+00 0.000000e+00 0.000000e+00 0.000000e+00 0.000000e+00 0.000000e+00 0.000000e+00 
     1.5                0.000000e+00 0.000000e+00 0.000000e+00 0.000000e+00 0.000000e+00 0.000000e+00 0.000000e+00 0.000000e+00 0.000000e+00 0.000000e+00 0.000000e+00 0.000000e+00 
     2.5                8.903709e-05 9.017887e-05 6.991614e-05 7.840256e-05 2.061260e-04 3.005448e-08 8.957516e-05 9.329165e-05 9.318553e-05 2.749655e-04 3.014365e-04 2.573689e-04 
     3.5                4.598588e-04 4.598825e-04 3.823592e-04 4.147941e-04 9.015081e-04 3.374072e-07 4.572594e-04 4.730451e-04 4.727243e-04 1.321354e-03 1.433909e-03 1.338158e-03 
     4.5                8.934328e-04 8.922459e-04 8.289733e-04 8.655333e-04 1.658116e-03 9.071286e-07 8.872743e-04 9.530077e-04 9.526078e-04 2.624164e-03 2.719009e-03 2.717672e-03 
     5.5                1.353646e-03 1.351821e-03 1.372998e-03 1.399069e-03 2.486178e-03 1.578414e-06 1.344259e-03 1.496218e-03 1.495492e-03 4.120221e-03 4.101391e-03 4.275501e-03 
     6.5                1.788418e-03 1.785493e-03 2.048882e-03 1.992989e-03 3.246466e-03 2.509777e-06 1.776277e-03 2.009783e-03 2.009063e-03 5.736608e-03 5.392096e-03 5.955793e-03 
     7.5                2.205386e-03 2.201080e-03 2.823136e-03 2.671862e-03 3.990988e-03 3.489190e-06 2.190253e-03 2.516522e-03 2.515369e-03 7.494542e-03 6.641453e-03 7.757187e-03 
     8.5                2.579301e-03 2.574981e-03 3.527921e-03 3.250274e-03 4.664690e-03 4.498578e-06 2.562734e-03 2.989252e-03 2.988333e-03 9.068208e-03 7.765943e-03 9.365194e-03 
     9.5                2.880247e-03 2.875160e-03 4.286715e-03 3.869312e-03 5.189568e-03 5.461533e-06 2.862021e-03 3.396415e-03 3.395196e-03 1.060449e-02 8.661008e-03 1.093759e-02 
    10.5                3.194813e-03 3.189576e-03 5.049065e-03 4.489665e-03 5.791718e-03 6.450880e-06 3.174944e-03 3.854217e-03 3.852680e-03 1.221165e-02 9.631040e-03 1.254248e-02 
    11.5                3.459047e-03 3.453148e-03 5.925822e-03 5.137182e-03 6.257061e-03 7.741932e-06 3.438464e-03 4.244029e-03 4.242077e-03 1.384476e-02 1.042344e-02 1.420637e-02 
    12.5                3.669579e-03 3.663838e-03 6.594943e-03 5.656847e-03 6.608434e-03 8.621093e-06 3.649420e-03 4.471880e-03 4.470119e-03 1.511412e-02 1.103511e-02 1.549178e-02 
    13.5                3.711624e-03 3.704726e-03 7.127006e-03 5.891407e-03 6.685625e-03 9.818102e-06 3.692233e-03 4.571153e-03 4.568697e-03 1.586649e-02 1.116522e-02 1.623208e-02 
    14.5                3.808903e-03 3.803483e-03 7.706883e-03 6.367402e-03 6.934669e-03 1.028301e-05 3.792089e-03 4.680242e-03 4.678017e-03 1.693967e-02 1.151315e-02 1.728006e-02 
    15.5                3.901137e-03 3.894884e-03 8.264724e-03 6.709848e-03 7.064089e-03 1.136224e-05 3.884141e-03 4.799954e-03 4.797778e-03 1.782392e-02 1.176617e-02 1.816611e-02 
    16.5                3.926957e-03 3.921124e-03 8.476242e-03 6.884764e-03 7.157064e-03 1.153706e-05 3.910919e-03 4.839052e-03 4.836525e-03 1.820677e-02 1.187897e-02 1.852844e-02 
    17.5                3.947983e-03 3.942991e-03 8.749630e-03 7.044084e-03 7.184389e-03 1.203605e-05 3.933859e-03 4.782232e-03 4.779656e-03 1.859456e-02 1.193593e-02 1.891580e-02 
    18.5                3.992340e-03 3.986092e-03 9.113740e-03 7.360651e-03 7.307253e-03 1.233710e-05 3.978000e-03 4.805899e-03 4.803236e-03 1.926006e-02 1.210155e-02 1.954944e-02 
    19.5                4.008549e-03 4.004576e-03 9.150319e-03 7.436606e-03 7.269396e-03 1.215402e-05 3.996600e-03 4.677319e-03 4.675055e-03 1.928559e-02 1.209980e-02 1.961986e-02 
    20.5                3.902568e-03 3.898393e-03 9.043162e-03 7.394912e-03 7.156182e-03 1.183071e-05 3.890681e-03 4.523346e-03 4.520617e-03 1.905296e-02 1.184025e-02 1.932044e-02 
    21.5                3.941678e-03 3.937232e-03 9.201794e-03 7.537043e-03 7.250213e-03 1.190795e-05 3.930387e-03 4.473623e-03 4.470876e-03 1.934529e-02 1.197553e-02 1.961020e-02 
    22.5                3.908821e-03 3.903630e-03 9.304070e-03 7.576097e-03 7.105343e-03 1.205851e-05 3.898791e-03 4.295174e-03 4.292338e-03 1.936648e-02 1.181309e-02 1.965877e-02 
    23.5                3.708223e-03 3.704347e-03 8.726178e-03 7.191966e-03 6.808379e-03 1.104649e-05 3.698643e-03 4.030321e-03 4.028308e-03 1.829988e-02 1.125864e-02 1.854194e-02 
    24.5                3.608077e-03 3.604557e-03 8.443619e-03 7.061206e-03 6.638615e-03 1.034167e-05 3.598879e-03 3.813242e-03 3.810522e-03 1.778287e-02 1.096151e-02 1.801534e-02 
    25.5                3.502670e-03 3.500610e-03 8.157019e-03 6.861206e-03 6.460457e-03 9.926706e-06 3.494980e-03 3.620077e-03 3.618076e-03 1.722903e-02 1.065538e-02 1.744079e-02 
    26.5                3.461953e-03 3.458576e-03 7.919341e-03 6.772011e-03 6.400567e-03 9.258734e-06 3.453093e-03 3.468396e-03 3.466271e-03 1.684461e-02 1.054216e-02 1.705332e-02 
    27.5                3.346492e-03 3.342868e-03 7.477698e-03 6.474321e-03 6.139618e-03 8.573410e-06 3.336886e-03 3.241921e-03 3.239777e-03 1.599431e-02 1.015312e-02 1.621306e-02 
    28.5                3.239859e-03 3.239434e-03 7.189759e-03 6.283493e-03 6.000057e-03 8.004292e-06 3.234361e-03 2.986784e-03 2.984895e-03 1.544974e-02 9.873994e-03 1.563421e-02 
    29.5                3.031259e-03 3.028185e-03 6.707062e-03 5.872560e-03 5.566986e-03 7.457951e-06 3.023903e-03 2.703867e-03 2.702304e-03 1.438952e-02 9.199272e-03 1.458280e-02 
    30.5                2.914418e-03 2.912831e-03 6.486628e-03 5.724771e-03 5.422211e-03 7.001618e-06 2.908830e-03 2.562019e-03 2.560147e-03 1.394649e-02 8.900038e-03 1.410241e-02 
    31.5                2.902903e-03 2.901305e-03 6.277896e-03 5.608807e-03 5.398492e-03 6.632439e-06 2.897506e-03 2.392119e-03 2.390700e-03 1.361166e-02 8.860617e-03 1.375238e-02 
    32.5                2.777084e-03 2.776537e-03 5.782789e-03 5.224079e-03 5.178317e-03 6.002998e-06 2.772546e-03 2.191368e-03 2.189775e-03 1.268575e-02 8.487501e-03 1.282466e-02 
    33.5                2.812409e-03 2.812584e-03 5.699597e-03 5.242621e-03 5.292577e-03 5.604256e-06 2.809286e-03 2.060403e-03 2.059077e-03 1.264998e-02 8.628653e-03 1.277779e-02 
    34.5                2.834431e-03 2.831634e-03 5.653510e-03 5.201129e-03 5.295760e-03 5.615869e-06 2.828285e-03 1.998406e-03 1.996835e-03 1.255917e-02 8.663057e-03 1.268887e-02 
    35.5                2.720527e-03 2.721820e-03 5.121043e-03 4.786724e-03 5.103117e-03 4.988850e-06 2.717233e-03 1.844004e-03 1.842917e-03 1.159933e-02 8.333712e-03 1.172190e-02 
    36.5                2.759947e-03 2.759687e-03 5.136390e-03 4.850362e-03 5.207755e-03 4.844819e-06 2.757044e-03 1.746108e-03 1.745000e-03 1.170341e-02 8.479744e-03 1.182496e-02 
    37.5                2.819009e-03 2.820337e-03 5.068285e-03 4.800273e-03 5.359051e-03 4.873596e-06 2.816759e-03 1.700073e-03 1.699085e-03 1.169950e-02 8.692737e-03 1.178143e-02 
    38.5                2.981199e-03 2.981184e-03 5.044098e-03 4.873992e-03 5.748552e-03 4.636880e-06 2.978355e-03 1.652218e-03 1.651160e-03 1.194754e-02 9.239037e-03 1.201169e-02 
    39.5                2.939201e-03 2.943252e-03 4.861649e-03 4.699070e-03 5.533085e-03 4.619880e-06 2.939787e-03 1.589528e-03 1.588511e-03 1.150773e-02 9.021529e-03 1.165239e-02 
    40.5                2.979400e-03 2.982253e-03 4.821527e-03 4.696981e-03 5.701706e-03 4.511905e-06 2.978429e-03 1.523596e-03 1.522770e-03 1.157302e-02 9.214363e-03 1.165024e-02 
    41.5                3.267163e-03 3.268093e-03 4.844086e-03 4.810968e-03 6.291001e-03 4.453055e-06 3.264005e-03 1.564309e-03 1.563438e-03 1.206163e-02 1.011760e-02 1.213703e-02 
    42.5                3.230198e-03 3.229822e-03 4.538052e-03 4.529267e-03 6.103784e-03 4.417077e-06 3.225664e-03 1.507382e-03 1.506060e-03 1.145934e-02 9.927216e-03 1.160166e-02 
    43.5                3.307766e-03 3.309888e-03 4.405413e-03 4.487791e-03 6.452373e-03 4.083783e-06 3.304310e-03 1.494961e-03 1.493860e-03 1.153777e-02 1.031084e-02 1.157770e-02 
    44.5                3.666151e-03 3.666681e-03 4.693924e-03 4.825754e-03 7.095657e-03 4.392408e-06 3.662769e-03 1.575354e-03 1.574372e-03 1.244666e-02 1.138488e-02 1.254166e-02 
    45.5                3.659695e-03 3.663136e-03 4.491783e-03 4.643228e-03 7.054386e-03 4.329106e-06 3.658009e-03 1.506878e-03 1.505965e-03 1.212517e-02 1.134509e-02 1.222196e-02 
    46.5                3.771924e-03 3.766564e-03 4.399494e-03 4.587665e-03 7.230246e-03 4.289900e-06 3.760873e-03 1.508208e-03 1.507244e-03 1.216290e-02 1.165269e-02 1.228039e-02 
    47.5                3.923045e-03 3.927574e-03 4.314187e-03 4.561115e-03 7.711569e-03 4.332209e-06 3.922057e-03 1.563455e-03 1.562315e-03 1.244239e-02 1.228140e-02 1.243446e-02 
    48.5                4.365114e-03 4.367526e-03 4.381059e-03 4.729818e-03 8.455497e-03 4.352747e-06 4.360538e-03 1.603315e-03 1.602255e-03 1.314983e-02 1.355033e-02 1.327728e-02 
    49.5                4.639021e-03 4.646612e-03 4.487245e-03 4.914354e-03 9.281540e-03 4.559000e-06 4.638973e-03 1.681871e-03 1.680951e-03 1.398745e-02 1.463772e-02 1.389873e-02 
    50.5                5.340945e-03 5.354048e-03 4.632445e-03 5.187199e-03 1.063320e-02 4.871702e-06 5.344658e-03 1.782937e-03 1.781936e-03 1.536428e-02 1.680368e-02 1.528105e-02 
    51.5                6.000899e-03 6.011453e-03 4.667958e-03 5.326960e-03 1.171359e-02 5.391216e-06 6.001668e-03 1.852774e-03 1.851628e-03 1.637111e-02 1.870227e-02 1.648175e-02 
    52.5                6.080231e-03 6.082974e-03 4.356822e-03 5.050411e-03 1.171571e-02 5.430987e-06 6.073951e-03 1.875585e-03 1.874377e-03 1.598875e-02 1.883084e-02 1.622736e-02 
    53.5                6.194421e-03 6.196263e-03 4.158036e-03 4.895074e-03 1.187812e-02 5.369782e-06 6.187514e-03 1.879403e-03 1.878449e-03 1.588588e-02 1.913374e-02 1.618650e-02 
    54.5                5.916679e-03 5.918068e-03 3.821196e-03 4.527504e-03 1.119128e-02 5.277556e-06 5.908636e-03 1.836380e-03 1.835262e-03 1.483672e-02 1.818383e-02 1.525541e-02 
    55.5                5.901350e-03 5.905962e-03 3.673413e-03 4.417026e-03 1.128954e-02 4.925899e-06 5.896407e-03 1.815318e-03 1.814258e-03 1.472672e-02 1.820647e-02 1.507449e-02 
    56.5                5.690185e-03 5.691166e-03 3.459655e-03 4.170129e-03 1.076109e-02 4.898016e-06 5.682314e-03 1.754849e-03 1.753891e-03 1.399256e-02 1.746939e-02 1.440824e-02 
    57.5                5.206337e-03 5.209873e-03 3.007896e-03 3.665980e-03 9.822787e-03 4.509966e-06 5.201802e-03 1.626301e-03 1.625477e-03 1.258863e-02 1.598212e-02 1.299029e-02 
    58.5                4.987348e-03 4.987961e-03 2.768485e-03 3.421808e-03 9.422488e-03 4.132830e-06 4.979980e-03 1.496988e-03 1.496217e-03 1.191516e-02 1.529656e-02 1.230404e-02 
    59.5                4.759639e-03 4.758801e-03 2.539974e-03 3.171761e-03 8.986674e-03 3.902317e-06 4.751644e-03 1.364727e-03 1.364114e-03 1.124790e-02 1.459346e-02 1.161112e-02 
    60.5                4.330246e-03 4.336852e-03 2.193010e-03 2.776273e-03 8.170648e-03 3.587903e-06 4.330281e-03 1.194021e-03 1.193298e-03 1.009291e-02 1.329052e-02 1.043745e-02 
    61.5                3.916958e-03 3.918053e-03 1.835550e-03 2.346669e-03 7.122844e-03 3.320651e-06 3.912265e-03 1.037649e-03 1.037175e-03 8.718920e-03 1.181120e-02 9.248388e-03 
    62.5                3.194408e-03 3.188819e-03 1.439751e-03 1.868613e-03 5.831052e-03 2.672016e-06 3.184633e-03 8.618135e-04 8.611973e-04 7.057659e-03 9.646044e-03 7.485090e-03 
    63.5                2.615177e-03 2.614787e-03 1.134160e-03 1.485300e-03 4.757377e-03 2.190599e-06 2.611141e-03 6.958903e-04 6.955516e-04 5.715199e-03 7.886365e-03 6.075631e-03 
    64.5                2.091893e-03 2.090487e-03 8.713122e-04 1.156386e-03 3.805060e-03 1.759937e-06 2.087509e-03 5.334312e-04 5.331629e-04 4.531326e-03 6.312482e-03 4.820410e-03 
    65.5                1.644712e-03 1.642738e-03 6.347902e-04 8.543743e-04 2.905487e-03 1.390085e-06 1.640564e-03 3.917370e-04 3.915438e-04 3.429862e-03 4.894110e-03 3.733312e-03 
    66.5                1.194274e-03 1.192430e-03 4.329940e-04 5.899418e-04 2.066413e-03 1.048173e-06 1.191127e-03 2.641231e-04 2.639792e-04 2.420970e-03 3.521835e-03 2.679206e-03 
    67.5                7.791551e-04 7.782276e-04 2.567790e-04 3.580373e-04 1.324372e-03 7.057094e-07 7.774981e-04 1.579237e-04 1.578626e-04 1.532494e-03 2.282426e-03 1.721477e-03 
    68.5                4.684739e-04 4.678656e-04 1.349465e-04 1.923337e-04 7.451207e-04 4.409403e-07 4.674861e-04 8.032940e-05 8.028544e-05 8.545181e-04 1.333234e-03 1.015142e-03 
    69.5                2.234734e-04 2.222603e-04 5.344569e-05 7.895035e-05 3.294901e-04 2.257068e-07 2.222435e-04 3.180472e-05 3.177384e-05 3.733345e-04 6.161952e-04 4.735369e-04 
    70.5                7.126002e-05 7.067782e-05 1.302058e-05 1.936893e-05 8.455990e-05 9.211658e-08 7.065670e-05 7.954046e-06 7.941020e-06 9.609188e-05 1.823180e-04 1.472392e-04 
    71.5                1.159133e-05 1.147147e-05 1.319647e-06 2.159865e-06 1.117689e-05 1.824211e-08 1.146585e-05 1.049170e-06 1.047168e-06 1.246841e-05 2.792415e-05 2.345475e-05 
    72.5                6.801604e-07 6.696450e-07 3.418846e-08 5.104700e-08 2.455336e-07 1.815704e-09 6.681502e-07 3.238137e-08 3.210138e-08 2.831314e-07 1.390254e-06 1.353768e-06 
    73.5                0.000000e+00 0.000000e+00 0.000000e+00 0.000000e+00 0.000000e+00 0.000000e+00 0.000000e+00 0.000000e+00 0.000000e+00 0.000000e+00 0.000000e+00 0.000000e+00 
    74.5                0.000000e+00 0.000000e+00 0.000000e+00 0.000000e+00 0.000000e+00 0.000000e+00 0.000000e+00 0.000000e+00 0.000000e+00 0.000000e+00 0.000000e+00 0.000000e+00 
    75.5                0.000000e+00 0.000000e+00 0.000000e+00 0.000000e+00 0.000000e+00 0.000000e+00 0.000000e+00 0.000000e+00 0.000000e+00 0.000000e+00 0.000000e+00 0.000000e+00 
    76.5                0.000000e+00 0.000000e+00 0.000000e+00 0.000000e+00 0.000000e+00 0.000000e+00 0.000000e+00 0.000000e+00 0.000000e+00 0.000000e+00 0.000000e+00 0.000000e+00 
    77.5                0.000000e+00 0.000000e+00 0.000000e+00 0.000000e+00 0.000000e+00 0.000000e+00 0.000000e+00 0.000000e+00 0.000000e+00 0.000000e+00 0.000000e+00 0.000000e+00 
    78.5                0.000000e+00 0.000000e+00 0.000000e+00 0.000000e+00 0.000000e+00 0.000000e+00 0.000000e+00 0.000000e+00 0.000000e+00 0.000000e+00 0.000000e+00 0.000000e+00 
    79.5                0.000000e+00 0.000000e+00 0.000000e+00 0.000000e+00 0.000000e+00 0.000000e+00 0.000000e+00 0.000000e+00 0.000000e+00 0.000000e+00 0.000000e+00 0.000000e+00 


