# 80 rows of flux data
# 12 columns of flux data
# 
# total cross-sectional flux  2.193415e+00 /m^2/yr
#
#                             +x ram      -x wake      +y port -y starboard    +z zenith     -z nadir        Earth          Sun     anti-Sun      rot (x)      rot (y)      rot (z) 
# average speed (km/s)         24.66        23.83        17.71        24.88        23.53        23.72        18.19        24.65        24.64        23.56        24.04        24.16 
# total flux (#/m2/yr)  7.321247e-01 6.242432e-01 1.410674e-01 9.696834e-01 8.270528e-01 8.878294e-04 8.159991e-02 9.642678e-01 9.517704e-01 1.466883e+00 1.747178e+00 1.944409e+00 
# velocity (km/s)
     0.5                0.000000e+00 0.000000e+00 0.000000e+00 0.000000e+00 0.000000e+00 0.000000e+00 0.000000e+00 0.000000e+00 0.000000e+00 0.000000e+00 0.000000e+00 0.000000e+00 
     1.5                0.000000e+00 0.000000e+00 0.000000e+00 0.000000e+00 0.000000e+00 0.000000e+00 0.000000e+00 0.000000e+00 0.000000e+00 0.000000e+00 0.000000e+00 0.000000e+00 
     2.5                0.000000e+00 5.660809e-06 1.118537e-06 9.299767e-07 2.376085e-06 1.205084e-09 6.025294e-07 1.551059e-06 3.565677e-07 3.450954e-06 6.303839e-06 6.186128e-06 
     3.5                3.611540e-06 1.324019e-04 2.951851e-05 6.553002e-05 8.413571e-05 6.534154e-08 1.694279e-05 5.647837e-05 2.933784e-05 1.371396e-04 1.742572e-04 1.821845e-04 
     4.5                1.370121e-04 5.790978e-04 1.611320e-04 4.042846e-04 4.699705e-04 4.328731e-07 9.178924e-05 2.936314e-04 2.004676e-04 8.014643e-04 9.390420e-04 1.007779e-03 
     5.5                6.266185e-04 1.532145e-03 5.659395e-04 1.356569e-03 1.563624e-03 1.402353e-06 3.238846e-04 9.768080e-04 7.992765e-04 2.726120e-03 2.941494e-03 3.206945e-03 
     6.5                2.026598e-03 2.854998e-03 1.293994e-03 3.000459e-03 3.467031e-03 3.403850e-06 7.462322e-04 2.220652e-03 2.000143e-03 6.108028e-03 6.604932e-03 7.213020e-03 
     7.5                3.726782e-03 5.031589e-03 2.385332e-03 5.255952e-03 6.240036e-03 6.146112e-06 1.348949e-03 4.039354e-03 3.855391e-03 1.094135e-02 1.186474e-02 1.288947e-02 
     8.5                6.228334e-03 7.483056e-03 3.641948e-03 8.516546e-03 9.849990e-03 9.844700e-06 2.071725e-03 6.533311e-03 6.468014e-03 1.733884e-02 1.862477e-02 2.031774e-02 
     9.5                9.497300e-03 9.485395e-03 5.050714e-03 1.187476e-02 1.372509e-02 1.389618e-05 2.857020e-03 9.583330e-03 9.585410e-03 2.416936e-02 2.587019e-02 2.820894e-02 
    10.5                1.278304e-02 1.149816e-02 6.753957e-03 1.445960e-02 1.743790e-02 1.783411e-05 3.794683e-03 1.311161e-02 1.302476e-02 3.054429e-02 3.300114e-02 3.575466e-02 
    11.5                1.498013e-02 1.319640e-02 8.020453e-03 1.688914e-02 2.070159e-02 2.016549e-05 4.431497e-03 1.659597e-02 1.640763e-02 3.598704e-02 3.864207e-02 4.172765e-02 
    12.5                1.715662e-02 1.446227e-02 8.720046e-03 1.890261e-02 2.304270e-02 2.212147e-05 4.708505e-03 1.965600e-02 1.945208e-02 3.985032e-02 4.323101e-02 4.655526e-02 
    13.5                1.845079e-02 1.643746e-02 9.147596e-03 2.115230e-02 2.509394e-02 2.461051e-05 4.898740e-03 2.263630e-02 2.243106e-02 4.344956e-02 4.750285e-02 5.122462e-02 
    14.5                2.013703e-02 1.816567e-02 9.183837e-03 2.406018e-02 2.708137e-02 2.715686e-05 4.930126e-03 2.581230e-02 2.556832e-02 4.715096e-02 5.186897e-02 5.623325e-02 
    15.5                2.190069e-02 1.974796e-02 8.876454e-03 2.697059e-02 2.863745e-02 2.963999e-05 4.797289e-03 2.884519e-02 2.857322e-02 5.020070e-02 5.586504e-02 6.093639e-02 
    16.5                2.378350e-02 2.116715e-02 8.640614e-03 2.961105e-02 3.012952e-02 3.171777e-05 4.734184e-03 3.167920e-02 3.138302e-02 5.304730e-02 5.976550e-02 6.544376e-02 
    17.5                2.513910e-02 2.254269e-02 8.137313e-03 3.201786e-02 3.115822e-02 3.337960e-05 4.517270e-03 3.420967e-02 3.389669e-02 5.511530e-02 6.282751e-02 6.910716e-02 
    18.5                2.639326e-02 2.354504e-02 7.468589e-03 3.436684e-02 3.192651e-02 3.494684e-05 4.220768e-03 3.645656e-02 3.612206e-02 5.680129e-02 6.532817e-02 7.222616e-02 
    19.5                2.759225e-02 2.428988e-02 6.956722e-03 3.610535e-02 3.252178e-02 3.602653e-05 3.982856e-03 3.824784e-02 3.789395e-02 5.802696e-02 6.743896e-02 7.474361e-02 
    20.5                2.821599e-02 2.496756e-02 6.343037e-03 3.746820e-02 3.275220e-02 3.659925e-05 3.669684e-03 3.949105e-02 3.911373e-02 5.855926e-02 6.873000e-02 7.637744e-02 
    21.5                2.867506e-02 2.599201e-02 5.736776e-03 3.903058e-02 3.312279e-02 3.717043e-05 3.396732e-03 4.084863e-02 4.043433e-02 5.936078e-02 7.025639e-02 7.831266e-02 
    22.5                2.958717e-02 2.662666e-02 5.275884e-03 4.071631e-02 3.378347e-02 3.776261e-05 3.146575e-03 4.225427e-02 4.180384e-02 6.059048e-02 7.208463e-02 8.051566e-02 
    23.5                3.036792e-02 2.687201e-02 4.676087e-03 4.180894e-02 3.386244e-02 3.804275e-05 2.845950e-03 4.305700e-02 4.257378e-02 6.082082e-02 7.302371e-02 8.172631e-02 
    24.5                3.053187e-02 2.700044e-02 4.131394e-03 4.237005e-02 3.366832e-02 3.777205e-05 2.551388e-03 4.329150e-02 4.277518e-02 6.047418e-02 7.314916e-02 8.198893e-02 
    25.5                3.057710e-02 2.687551e-02 3.565049e-03 4.271970e-02 3.332010e-02 3.713414e-05 2.241766e-03 4.321995e-02 4.267218e-02 5.981522e-02 7.284826e-02 8.177629e-02 
    26.5                3.043792e-02 2.619074e-02 3.062051e-03 4.243094e-02 3.261046e-02 3.605814e-05 1.948604e-03 4.256010e-02 4.199811e-02 5.847106e-02 7.165143e-02 8.052244e-02 
    27.5                2.980860e-02 2.552271e-02 2.613692e-03 4.155616e-02 3.153825e-02 3.498853e-05 1.692290e-03 4.143032e-02 4.086362e-02 5.649536e-02 6.979689e-02 7.848335e-02 
    28.5                2.883976e-02 2.465675e-02 2.214827e-03 4.050594e-02 3.042193e-02 3.328498e-05 1.449576e-03 3.999737e-02 3.942748e-02 5.439855e-02 6.743673e-02 7.590358e-02 
    29.5                2.793902e-02 2.350603e-02 1.841010e-03 3.910497e-02 2.907332e-02 3.168480e-05 1.229957e-03 3.831491e-02 3.774919e-02 5.191989e-02 6.473267e-02 7.290415e-02 
    30.5                2.665444e-02 2.222387e-02 1.516433e-03 3.729098e-02 2.749692e-02 2.976194e-05 1.031223e-03 3.624662e-02 3.569588e-02 4.901213e-02 6.141960e-02 6.921107e-02 
    31.5                2.523012e-02 2.072606e-02 1.217262e-03 3.519722e-02 2.574267e-02 2.775665e-05 8.497718e-04 3.390710e-02 3.337750e-02 4.580412e-02 5.767731e-02 6.503558e-02 
    32.5                2.359555e-02 1.900028e-02 9.715614e-04 3.273756e-02 2.379139e-02 2.548733e-05 6.962904e-04 3.124022e-02 3.074150e-02 4.225080e-02 5.341403e-02 6.026198e-02 
    33.5                2.177603e-02 1.706303e-02 7.690941e-04 2.988598e-02 2.160671e-02 2.313885e-05 5.678473e-04 2.827442e-02 2.781440e-02 3.830953e-02 4.864679e-02 5.489818e-02 
    34.5                1.966527e-02 1.512733e-02 6.027082e-04 2.680190e-02 1.929551e-02 2.062684e-05 4.590241e-04 2.513896e-02 2.472448e-02 3.415718e-02 4.353917e-02 4.914683e-02 
    35.5                1.751639e-02 1.320048e-02 4.583995e-04 2.367775e-02 1.697826e-02 1.813668e-05 3.621849e-04 2.201283e-02 2.164515e-02 3.000483e-02 3.840125e-02 4.335581e-02 
    36.5                1.534462e-02 1.133113e-02 3.369591e-04 2.060333e-02 1.471553e-02 1.568367e-05 2.802603e-04 1.895760e-02 1.863689e-02 2.596350e-02 3.332913e-02 3.764432e-02 
    37.5                1.326393e-02 9.519772e-03 2.433473e-04 1.760630e-02 1.253492e-02 1.334194e-05 2.138031e-04 1.603714e-02 1.576426e-02 2.208074e-02 2.844306e-02 3.213163e-02 
    38.5                1.122609e-02 7.736581e-03 1.696644e-04 1.468007e-02 1.042155e-02 1.108003e-05 1.594220e-04 1.322577e-02 1.300048e-02 1.833155e-02 2.366662e-02 2.674515e-02 
    39.5                9.274536e-03 6.012613e-03 1.144672e-04 1.182049e-02 8.371755e-03 8.923334e-06 1.161882e-04 1.054044e-02 1.036256e-02 1.470683e-02 1.905888e-02 2.153748e-02 
    40.5                7.351083e-03 4.443005e-03 7.370711e-05 9.094399e-03 6.428844e-03 6.892060e-06 8.167980e-05 8.029966e-03 7.896575e-03 1.127966e-02 1.468481e-02 1.659083e-02 
    41.5                5.561902e-03 3.133503e-03 4.522136e-05 6.664830e-03 4.704161e-03 5.099383e-06 5.530578e-05 5.835684e-03 5.741336e-03 8.244348e-03 1.080307e-02 1.219766e-02 
    42.5                3.996201e-03 2.091020e-03 2.639459e-05 4.655736e-03 3.281991e-03 3.576274e-06 3.589339e-05 4.033953e-03 3.970497e-03 5.746102e-03 7.555668e-03 8.529655e-03 
    43.5                2.748568e-03 1.251550e-03 1.448739e-05 3.046879e-03 2.145799e-03 2.354885e-06 2.207606e-05 2.613784e-03 2.574839e-03 3.753593e-03 4.958079e-03 5.594806e-03 
    44.5                1.745628e-03 6.504744e-04 7.444132e-06 1.791976e-03 1.261275e-03 1.431272e-06 1.276007e-05 1.532890e-03 1.512728e-03 2.204812e-03 2.953914e-03 3.326196e-03 
    45.5                9.749633e-04 2.693660e-04 3.361959e-06 9.071929e-04 6.382542e-04 7.578166e-07 6.506109e-06 7.771086e-04 7.683880e-04 1.115132e-03 1.522876e-03 1.709746e-03 
    46.5                4.555666e-04 7.892039e-05 1.317360e-06 3.666101e-04 2.579130e-04 3.402959e-07 2.847907e-06 3.206255e-04 3.183385e-04 4.504888e-04 6.434247e-04 7.173136e-04 
    47.5                1.572508e-04 1.537494e-05 4.138008e-07 1.077650e-04 7.583285e-05 1.175770e-07 9.757652e-07 9.817867e-05 9.814218e-05 1.324535e-04 2.030545e-04 2.240200e-04 
    48.5                3.800678e-05 1.369568e-06 9.030045e-08 2.169509e-05 1.527328e-05 2.874988e-08 2.289760e-07 2.099698e-05 2.114911e-05 2.667701e-05 4.497969e-05 4.896470e-05 
    49.5                5.301654e-06 1.187658e-08 1.258953e-08 2.337436e-06 1.647477e-06 4.211210e-09 3.431182e-08 2.574065e-06 2.624461e-06 2.879438e-06 5.791969e-06 6.165670e-06 
    50.5                1.536375e-07 0.000000e+00 3.890131e-10 4.478880e-08 3.167035e-08 1.289921e-10 1.135312e-09 6.610583e-08 6.804480e-08 5.545362e-08 1.587728e-07 1.635612e-07 
    51.5                0.000000e+00 0.000000e+00 0.000000e+00 0.000000e+00 0.000000e+00 0.000000e+00 0.000000e+00 0.000000e+00 0.000000e+00 0.000000e+00 0.000000e+00 0.000000e+00 
    52.5                0.000000e+00 0.000000e+00 0.000000e+00 0.000000e+00 0.000000e+00 0.000000e+00 0.000000e+00 0.000000e+00 0.000000e+00 0.000000e+00 0.000000e+00 0.000000e+00 
    53.5                0.000000e+00 0.000000e+00 0.000000e+00 0.000000e+00 0.000000e+00 0.000000e+00 0.000000e+00 0.000000e+00 0.000000e+00 0.000000e+00 0.000000e+00 0.000000e+00 
    54.5                0.000000e+00 0.000000e+00 0.000000e+00 0.000000e+00 0.000000e+00 0.000000e+00 0.000000e+00 0.000000e+00 0.000000e+00 0.000000e+00 0.000000e+00 0.000000e+00 
    55.5                0.000000e+00 0.000000e+00 0.000000e+00 0.000000e+00 0.000000e+00 0.000000e+00 0.000000e+00 0.000000e+00 0.000000e+00 0.000000e+00 0.000000e+00 0.000000e+00 
    56.5                0.000000e+00 0.000000e+00 0.000000e+00 0.000000e+00 0.000000e+00 0.000000e+00 0.000000e+00 0.000000e+00 0.000000e+00 0.000000e+00 0.000000e+00 0.000000e+00 
    57.5                0.000000e+00 0.000000e+00 0.000000e+00 0.000000e+00 0.000000e+00 0.000000e+00 0.000000e+00 0.000000e+00 0.000000e+00 0.000000e+00 0.000000e+00 0.000000e+00 
    58.5                0.000000e+00 0.000000e+00 0.000000e+00 0.000000e+00 0.000000e+00 0.000000e+00 0.000000e+00 0.000000e+00 0.000000e+00 0.000000e+00 0.000000e+00 0.000000e+00 
    59.5                0.000000e+00 0.000000e+00 0.000000e+00 0.000000e+00 0.000000e+00 0.000000e+00 0.000000e+00 0.000000e+00 0.000000e+00 0.000000e+00 0.000000e+00 0.000000e+00 
    60.5                0.000000e+00 0.000000e+00 0.000000e+00 0.000000e+00 0.000000e+00 0.000000e+00 0.000000e+00 0.000000e+00 0.000000e+00 0.000000e+00 0.000000e+00 0.000000e+00 
    61.5                0.000000e+00 0.000000e+00 0.000000e+00 0.000000e+00 0.000000e+00 0.000000e+00 0.000000e+00 0.000000e+00 0.000000e+00 0.000000e+00 0.000000e+00 0.000000e+00 
    62.5                0.000000e+00 0.000000e+00 0.000000e+00 0.000000e+00 0.000000e+00 0.000000e+00 0.000000e+00 0.000000e+00 0.000000e+00 0.000000e+00 0.000000e+00 0.000000e+00 
    63.5                0.000000e+00 0.000000e+00 0.000000e+00 0.000000e+00 0.000000e+00 0.000000e+00 0.000000e+00 0.000000e+00 0.000000e+00 0.000000e+00 0.000000e+00 0.000000e+00 
    64.5                0.000000e+00 0.000000e+00 0.000000e+00 0.000000e+00 0.000000e+00 0.000000e+00 0.000000e+00 0.000000e+00 0.000000e+00 0.000000e+00 0.000000e+00 0.000000e+00 
    65.5                0.000000e+00 0.000000e+00 0.000000e+00 0.000000e+00 0.000000e+00 0.000000e+00 0.000000e+00 0.000000e+00 0.000000e+00 0.000000e+00 0.000000e+00 0.000000e+00 
    66.5                0.000000e+00 0.000000e+00 0.000000e+00 0.000000e+00 0.000000e+00 0.000000e+00 0.000000e+00 0.000000e+00 0.000000e+00 0.000000e+00 0.000000e+00 0.000000e+00 
    67.5                0.000000e+00 0.000000e+00 0.000000e+00 0.000000e+00 0.000000e+00 0.000000e+00 0.000000e+00 0.000000e+00 0.000000e+00 0.000000e+00 0.000000e+00 0.000000e+00 
    68.5                0.000000e+00 0.000000e+00 0.000000e+00 0.000000e+00 0.000000e+00 0.000000e+00 0.000000e+00 0.000000e+00 0.000000e+00 0.000000e+00 0.000000e+00 0.000000e+00 
    69.5                0.000000e+00 0.000000e+00 0.000000e+00 0.000000e+00 0.000000e+00 0.000000e+00 0.000000e+00 0.000000e+00 0.000000e+00 0.000000e+00 0.000000e+00 0.000000e+00 
    70.5                0.000000e+00 0.000000e+00 0.000000e+00 0.000000e+00 0.000000e+00 0.000000e+00 0.000000e+00 0.000000e+00 0.000000e+00 0.000000e+00 0.000000e+00 0.000000e+00 
    71.5                0.000000e+00 0.000000e+00 0.000000e+00 0.000000e+00 0.000000e+00 0.000000e+00 0.000000e+00 0.000000e+00 0.000000e+00 0.000000e+00 0.000000e+00 0.000000e+00 
    72.5                0.000000e+00 0.000000e+00 0.000000e+00 0.000000e+00 0.000000e+00 0.000000e+00 0.000000e+00 0.000000e+00 0.000000e+00 0.000000e+00 0.000000e+00 0.000000e+00 
    73.5                0.000000e+00 0.000000e+00 0.000000e+00 0.000000e+00 0.000000e+00 0.000000e+00 0.000000e+00 0.000000e+00 0.000000e+00 0.000000e+00 0.000000e+00 0.000000e+00 
    74.5                0.000000e+00 0.000000e+00 0.000000e+00 0.000000e+00 0.000000e+00 0.000000e+00 0.000000e+00 0.000000e+00 0.000000e+00 0.000000e+00 0.000000e+00 0.000000e+00 
    75.5                0.000000e+00 0.000000e+00 0.000000e+00 0.000000e+00 0.000000e+00 0.000000e+00 0.000000e+00 0.000000e+00 0.000000e+00 0.000000e+00 0.000000e+00 0.000000e+00 
    76.5                0.000000e+00 0.000000e+00 0.000000e+00 0.000000e+00 0.000000e+00 0.000000e+00 0.000000e+00 0.000000e+00 0.000000e+00 0.000000e+00 0.000000e+00 0.000000e+00 
    77.5                0.000000e+00 0.000000e+00 0.000000e+00 0.000000e+00 0.000000e+00 0.000000e+00 0.000000e+00 0.000000e+00 0.000000e+00 0.000000e+00 0.000000e+00 0.000000e+00 
    78.5                0.000000e+00 0.000000e+00 0.000000e+00 0.000000e+00 0.000000e+00 0.000000e+00 0.000000e+00 0.000000e+00 0.000000e+00 0.000000e+00 0.000000e+00 0.000000e+00 
    79.5                0.000000e+00 0.000000e+00 0.000000e+00 0.000000e+00 0.000000e+00 0.000000e+00 0.000000e+00 0.000000e+00 0.000000e+00 0.000000e+00 0.000000e+00 0.000000e+00 


