# 80 rows of flux data
# 12 columns of flux data
# 
# total cross-sectional flux  1.024434e+00 /m^2/yr
#
#                             +x ram      -x wake      +y port -y starboard    +z zenith     -z nadir        Earth          Sun     anti-Sun      rot (x)      rot (y)      rot (z) 
# average speed (km/s)         37.74        37.75        31.43        44.18        32.20        44.98        37.79        28.15        28.15        33.94        34.69        36.49 
# total flux (#/m2/yr)  2.324418e-01 2.324359e-01 3.544073e-01 1.570392e-01 5.590458e-01 2.647718e-04 2.319095e-01 1.633292e-01 1.633271e-01 8.488530e-01 8.001255e-01 7.649025e-01 
# velocity (km/s)
     0.5                0.000000e+00 0.000000e+00 0.000000e+00 0.000000e+00 0.000000e+00 0.000000e+00 0.000000e+00 0.000000e+00 0.000000e+00 0.000000e+00 0.000000e+00 0.000000e+00 
     1.5                0.000000e+00 0.000000e+00 0.000000e+00 0.000000e+00 0.000000e+00 0.000000e+00 0.000000e+00 0.000000e+00 0.000000e+00 0.000000e+00 0.000000e+00 0.000000e+00 
     2.5                9.043524e-05 9.101855e-05 3.927406e-05 1.148784e-04 1.795187e-04 5.338240e-08 9.048290e-05 9.136777e-05 9.145968e-05 2.641006e-04 2.826531e-04 2.636927e-04 
     3.5                4.544308e-04 4.545636e-04 3.254918e-04 4.772763e-04 8.016136e-04 4.885703e-07 4.522427e-04 4.606947e-04 4.604965e-04 1.278425e-03 1.344690e-03 1.340851e-03 
     4.5                9.029885e-04 9.026432e-04 8.511418e-04 8.250265e-04 1.604393e-03 1.113942e-06 8.979727e-04 9.582496e-04 9.581645e-04 2.613932e-03 2.683163e-03 2.725386e-03 
     5.5                1.378584e-03 1.377833e-03 1.492043e-03 1.167647e-03 2.584324e-03 1.739357e-06 1.370351e-03 1.525111e-03 1.524907e-03 4.173560e-03 4.195599e-03 4.239846e-03 
     6.5                1.847391e-03 1.846297e-03 2.327527e-03 1.439539e-03 3.737608e-03 2.304369e-06 1.836432e-03 2.099562e-03 2.099510e-03 5.951527e-03 5.841157e-03 5.845527e-03 
     7.5                2.282239e-03 2.280128e-03 3.184214e-03 1.642497e-03 4.998669e-03 2.697965e-06 2.267535e-03 2.637199e-03 2.636896e-03 7.772334e-03 7.512049e-03 7.350788e-03 
     8.5                2.688121e-03 2.686192e-03 4.066273e-03 1.854387e-03 6.234193e-03 3.047933e-06 2.671387e-03 3.171147e-03 3.171087e-03 9.577568e-03 9.124067e-03 8.851982e-03 
     9.5                3.010809e-03 3.008494e-03 4.880964e-03 1.927303e-03 7.414038e-03 3.225914e-06 2.991287e-03 3.621425e-03 3.621202e-03 1.118859e-02 1.056333e-02 1.004936e-02 
    10.5                3.325647e-03 3.323532e-03 5.665692e-03 2.065648e-03 8.633307e-03 3.395732e-06 3.303765e-03 4.080693e-03 4.080620e-03 1.284719e-02 1.202074e-02 1.126688e-02 
    11.5                3.617863e-03 3.614937e-03 6.614272e-03 2.077202e-03 9.998918e-03 3.510881e-06 3.593726e-03 4.508318e-03 4.508119e-03 1.463710e-02 1.358651e-02 1.248731e-02 
    12.5                3.847626e-03 3.844749e-03 7.345506e-03 2.091241e-03 1.104679e-02 3.487080e-06 3.822081e-03 4.818175e-03 4.818001e-03 1.601830e-02 1.476071e-02 1.341964e-02 
    13.5                3.929772e-03 3.926019e-03 8.048145e-03 2.063845e-03 1.191847e-02 3.445014e-06 3.904773e-03 4.955045e-03 4.954732e-03 1.714894e-02 1.562435e-02 1.410780e-02 
    14.5                3.963654e-03 3.960317e-03 8.202076e-03 2.013033e-03 1.254408e-02 3.311119e-06 3.938196e-03 5.021162e-03 5.021030e-03 1.773107e-02 1.621046e-02 1.423713e-02 
    15.5                4.083069e-03 4.080260e-03 8.913190e-03 1.971519e-03 1.348939e-02 3.211363e-06 4.058113e-03 5.158461e-03 5.158444e-03 1.892276e-02 1.715622e-02 1.495597e-02 
    16.5                4.086423e-03 4.083321e-03 9.039699e-03 1.932508e-03 1.378281e-02 3.149743e-06 4.061218e-03 5.181004e-03 5.180843e-03 1.921995e-02 1.740663e-02 1.503868e-02 
    17.5                4.113645e-03 4.111679e-03 9.292022e-03 1.847795e-03 1.416049e-02 3.018490e-06 4.090104e-03 5.148372e-03 5.148454e-03 1.963859e-02 1.775552e-02 1.521351e-02 
    18.5                4.131945e-03 4.129076e-03 9.508624e-03 1.789470e-03 1.461642e-02 2.886668e-06 4.107279e-03 5.119625e-03 5.119524e-03 2.010453e-02 1.814174e-02 1.535555e-02 
    19.5                4.135978e-03 4.134286e-03 9.573397e-03 1.674208e-03 1.470501e-02 2.730565e-06 4.112850e-03 5.011941e-03 5.011924e-03 2.015470e-02 1.818900e-02 1.531025e-02 
    20.5                4.039986e-03 4.038134e-03 9.481571e-03 1.585122e-03 1.451940e-02 2.544249e-06 4.017247e-03 4.845015e-03 4.845166e-03 1.989520e-02 1.786922e-02 1.500896e-02 
    21.5                4.025067e-03 4.023170e-03 9.439428e-03 1.531397e-03 1.469313e-02 2.400231e-06 4.002830e-03 4.730563e-03 4.730476e-03 1.996359e-02 1.797780e-02 1.491809e-02 
    22.5                4.036557e-03 4.035115e-03 9.678708e-03 1.402607e-03 1.483945e-02 2.283142e-06 4.016171e-03 4.600584e-03 4.600553e-03 2.015422e-02 1.808518e-02 1.500545e-02 
    23.5                3.824932e-03 3.823078e-03 9.188685e-03 1.330683e-03 1.405193e-02 2.090269e-06 3.805158e-03 4.312326e-03 4.312664e-03 1.912441e-02 1.710554e-02 1.423723e-02 
    24.5                3.681755e-03 3.680295e-03 8.718039e-03 1.217248e-03 1.352178e-02 1.942708e-06 3.662345e-03 4.058004e-03 4.058017e-03 1.830170e-02 1.642954e-02 1.353795e-02 
    25.5                3.594170e-03 3.593665e-03 8.577108e-03 1.178043e-03 1.319043e-02 1.841374e-06 3.576419e-03 3.858286e-03 3.858498e-03 1.789683e-02 1.600287e-02 1.325177e-02 
    26.5                3.510450e-03 3.509377e-03 8.164901e-03 1.097144e-03 1.275213e-02 1.797230e-06 3.492643e-03 3.643956e-03 3.643969e-03 1.723320e-02 1.549135e-02 1.272104e-02 
    27.5                3.411727e-03 3.410468e-03 7.924237e-03 1.000843e-03 1.218795e-02 1.646138e-06 3.394767e-03 3.434847e-03 3.434884e-03 1.654278e-02 1.482998e-02 1.229526e-02 
    28.5                3.284759e-03 3.284715e-03 7.548820e-03 9.213771e-04 1.168082e-02 1.453201e-06 3.270053e-03 3.181982e-03 3.182322e-03 1.582800e-02 1.420666e-02 1.173907e-02 
    29.5                3.115530e-03 3.114508e-03 7.258854e-03 8.113286e-04 1.098527e-02 1.288216e-06 3.101518e-03 2.881173e-03 2.881471e-03 1.495739e-02 1.336879e-02 1.115332e-02 
    30.5                2.939565e-03 2.938791e-03 6.815338e-03 7.354684e-04 1.053605e-02 1.158096e-06 2.926875e-03 2.675594e-03 2.675492e-03 1.423184e-02 1.275025e-02 1.048087e-02 
    31.5                2.907902e-03 2.906919e-03 6.587491e-03 7.058000e-04 1.024088e-02 1.030976e-06 2.895294e-03 2.523509e-03 2.523862e-03 1.383162e-02 1.241665e-02 1.021917e-02 
    32.5                2.809324e-03 2.809569e-03 6.282234e-03 6.944597e-04 9.585530e-03 9.484854e-07 2.799320e-03 2.322958e-03 2.322974e-03 1.308292e-02 1.171504e-02 9.831251e-03 
    33.5                2.787180e-03 2.787417e-03 5.979041e-03 6.703561e-04 9.321519e-03 9.235456e-07 2.777799e-03 2.147836e-03 2.148155e-03 1.267841e-02 1.143937e-02 9.531026e-03 
    34.5                2.830046e-03 2.828747e-03 6.089861e-03 6.399087e-04 9.350518e-03 7.930334e-07 2.819628e-03 2.064476e-03 2.064588e-03 1.275289e-02 1.148949e-02 9.655703e-03 
    35.5                2.723287e-03 2.725556e-03 5.696469e-03 6.769547e-04 8.595933e-03 8.533002e-07 2.717157e-03 1.937009e-03 1.937114e-03 1.190884e-02 1.071068e-02 9.232488e-03 
    36.5                2.719557e-03 2.719880e-03 5.464228e-03 6.567992e-04 8.445894e-03 8.627737e-07 2.712176e-03 1.806295e-03 1.806435e-03 1.164640e-02 1.058002e-02 9.021984e-03 
    37.5                2.792515e-03 2.793425e-03 5.621571e-03 7.546895e-04 8.509650e-03 9.957036e-07 2.787091e-03 1.751770e-03 1.751941e-03 1.186616e-02 1.071711e-02 9.340823e-03 
    38.5                2.870745e-03 2.872310e-03 5.385999e-03 8.627338e-04 8.446503e-03 1.036329e-06 2.866017e-03 1.686157e-03 1.686449e-03 1.175619e-02 1.077701e-02 9.377635e-03 
    39.5                2.951496e-03 2.953502e-03 5.584251e-03 8.121093e-04 8.206844e-03 1.264049e-06 2.947999e-03 1.641066e-03 1.641067e-03 1.171572e-02 1.070261e-02 9.606901e-03 
    40.5                2.935040e-03 2.935817e-03 5.427009e-03 8.936320e-04 8.121811e-03 1.142080e-06 2.930105e-03 1.576733e-03 1.576882e-03 1.160139e-02 1.059966e-02 9.533038e-03 
    41.5                3.147429e-03 3.148829e-03 5.413082e-03 1.171116e-03 8.291947e-03 1.349096e-06 3.143663e-03 1.566881e-03 1.567201e-03 1.194620e-02 1.103525e-02 1.008788e-02 
    42.5                3.243015e-03 3.243609e-03 5.542487e-03 1.187308e-03 7.915385e-03 1.401121e-06 3.239087e-03 1.557652e-03 1.557628e-03 1.177418e-02 1.088880e-02 1.034389e-02 
    43.5                3.225803e-03 3.227916e-03 5.192097e-03 1.463265e-03 7.679820e-03 2.130290e-06 3.223849e-03 1.519379e-03 1.519377e-03 1.156368e-02 1.071017e-02 1.028016e-02 
    44.5                3.508852e-03 3.509793e-03 5.335185e-03 1.583756e-03 8.075598e-03 2.416436e-06 3.505924e-03 1.562965e-03 1.563209e-03 1.212985e-02 1.144840e-02 1.093986e-02 
    45.5                3.642274e-03 3.646459e-03 5.655155e-03 1.697433e-03 7.938919e-03 3.037631e-06 3.644074e-03 1.559808e-03 1.560015e-03 1.238713e-02 1.155486e-02 1.148146e-02 
    46.5                3.750913e-03 3.749379e-03 5.528110e-03 2.016932e-03 7.825682e-03 3.307558e-06 3.747240e-03 1.548856e-03 1.548998e-03 1.247657e-02 1.165353e-02 1.180045e-02 
    47.5                3.933364e-03 3.936996e-03 5.502159e-03 2.595460e-03 7.879762e-03 4.411999e-06 3.935826e-03 1.594730e-03 1.594628e-03 1.296641e-02 1.201690e-02 1.253564e-02 
    48.5                4.241874e-03 4.241084e-03 5.238471e-03 3.201238e-03 8.046702e-03 5.657442e-06 4.239975e-03 1.645759e-03 1.645746e-03 1.340141e-02 1.265978e-02 1.331753e-02 
    49.5                4.602896e-03 4.604308e-03 5.336469e-03 3.878325e-03 8.378372e-03 7.304885e-06 4.603884e-03 1.721304e-03 1.721294e-03 1.431542e-02 1.353670e-02 1.446843e-02 
    50.5                5.264092e-03 5.271128e-03 5.429132e-03 5.031921e-03 8.987977e-03 8.651057e-06 5.271013e-03 1.834785e-03 1.834740e-03 1.578014e-02 1.507524e-02 1.647958e-02 
    51.5                6.020958e-03 6.025309e-03 5.542930e-03 6.061126e-03 9.388052e-03 1.044424e-05 6.027033e-03 1.922716e-03 1.922578e-03 1.701650e-02 1.666998e-02 1.854569e-02 
    52.5                6.252070e-03 6.251629e-03 5.405555e-03 6.396706e-03 9.097795e-03 1.126073e-05 6.254816e-03 1.958674e-03 1.958284e-03 1.691467e-02 1.689174e-02 1.904793e-02 
    53.5                6.310400e-03 6.310562e-03 4.980792e-03 6.747711e-03 8.864504e-03 1.155987e-05 6.314308e-03 1.960612e-03 1.960606e-03 1.663965e-02 1.685295e-02 1.908944e-02 
    54.5                6.124236e-03 6.125196e-03 4.756517e-03 6.491402e-03 8.251595e-03 1.158155e-05 6.128081e-03 1.930681e-03 1.930396e-03 1.577331e-02 1.614031e-02 1.844088e-02 
    55.5                6.024486e-03 6.027950e-03 4.398497e-03 6.747082e-03 8.041266e-03 1.176397e-05 6.031038e-03 1.909158e-03 1.908804e-03 1.552291e-02 1.583981e-02 1.820200e-02 
    56.5                5.854928e-03 5.856359e-03 4.142064e-03 6.519712e-03 7.614858e-03 1.190959e-05 5.859812e-03 1.850104e-03 1.849848e-03 1.478845e-02 1.526415e-02 1.755792e-02 
    57.5                5.475605e-03 5.478878e-03 3.839619e-03 6.205969e-03 6.845532e-03 1.130239e-05 5.483089e-03 1.728541e-03 1.728197e-03 1.366558e-02 1.410491e-02 1.646507e-02 
    58.5                5.159028e-03 5.156711e-03 3.292398e-03 6.091071e-03 6.358474e-03 1.095843e-05 5.160590e-03 1.585386e-03 1.585100e-03 1.272907e-02 1.323596e-02 1.544803e-02 
    59.5                4.926906e-03 4.927338e-03 2.916793e-03 5.947521e-03 5.955180e-03 1.019765e-05 4.931072e-03 1.449593e-03 1.449349e-03 1.195442e-02 1.256843e-02 1.467061e-02 
    60.5                4.582366e-03 4.590589e-03 2.662158e-03 5.586865e-03 5.327647e-03 9.797228e-06 4.594634e-03 1.283049e-03 1.282875e-03 1.094950e-02 1.157704e-02 1.364790e-02 
    61.5                4.138902e-03 4.141755e-03 2.205237e-03 5.006344e-03 4.581739e-03 8.605867e-06 4.145296e-03 1.114369e-03 1.114198e-03 9.490997e-03 1.029639e-02 1.213702e-02 
    62.5                3.433633e-03 3.428789e-03 1.747347e-03 4.177972e-03 3.678038e-03 7.626634e-06 3.432303e-03 9.289803e-04 9.286737e-04 7.731571e-03 8.480457e-03 1.001523e-02 
    63.5                2.797985e-03 2.801312e-03 1.306716e-03 3.481639e-03 2.963328e-03 6.011925e-06 2.803782e-03 7.489885e-04 7.489411e-04 6.223088e-03 6.892184e-03 8.135461e-03 
    64.5                2.256347e-03 2.256815e-03 1.001421e-03 2.840780e-03 2.337776e-03 4.870806e-06 2.258702e-03 5.773522e-04 5.771674e-04 4.956204e-03 5.530016e-03 6.544148e-03 
    65.5                1.780321e-03 1.778883e-03 7.176304e-04 2.203680e-03 1.764701e-03 3.732122e-06 1.780475e-03 4.240532e-04 4.239473e-04 3.745690e-03 4.310491e-03 5.071255e-03 
    66.5                1.306116e-03 1.304540e-03 4.813052e-04 1.588543e-03 1.243226e-03 2.714325e-06 1.305855e-03 2.868625e-04 2.867576e-04 2.639256e-03 3.131598e-03 3.661797e-03 
    67.5                8.700774e-04 8.699657e-04 2.979872e-04 1.035288e-03 7.889744e-04 1.763526e-06 8.708535e-04 1.738469e-04 1.738111e-04 1.681670e-03 2.064121e-03 2.404943e-03 
    68.5                5.244152e-04 5.249412e-04 1.584459e-04 5.883444e-04 4.392380e-04 1.060168e-06 5.253909e-04 8.928502e-05 8.925676e-05 9.354502e-04 1.222195e-03 1.408385e-03 
    69.5                2.576462e-04 2.568995e-04 7.119795e-05 2.639393e-04 1.928277e-04 5.563739e-07 2.572072e-04 3.618664e-05 3.616154e-05 4.143895e-04 5.864952e-04 6.682529e-04 
    70.5                8.677602e-05 8.635905e-05 2.331616e-05 6.769688e-05 5.064276e-05 2.227960e-07 8.639551e-05 9.549443e-06 9.537496e-06 1.112737e-04 1.897001e-04 2.102509e-04 
    71.5                1.493201e-05 1.487726e-05 3.494526e-06 9.146763e-06 6.649910e-06 4.621075e-08 1.487083e-05 1.329992e-06 1.328425e-06 1.508836e-05 3.167987e-05 3.431446e-05 
    72.5                9.208773e-07 9.069834e-07 1.413681e-07 2.013876e-07 1.548876e-07 4.640973e-09 9.042379e-07 4.735155e-08 4.699698e-08 4.009858e-07 1.841400e-06 1.875630e-06 
    73.5                0.000000e+00 0.000000e+00 0.000000e+00 0.000000e+00 0.000000e+00 0.000000e+00 0.000000e+00 0.000000e+00 0.000000e+00 0.000000e+00 0.000000e+00 0.000000e+00 
    74.5                0.000000e+00 0.000000e+00 0.000000e+00 0.000000e+00 0.000000e+00 0.000000e+00 0.000000e+00 0.000000e+00 0.000000e+00 0.000000e+00 0.000000e+00 0.000000e+00 
    75.5                0.000000e+00 0.000000e+00 0.000000e+00 0.000000e+00 0.000000e+00 0.000000e+00 0.000000e+00 0.000000e+00 0.000000e+00 0.000000e+00 0.000000e+00 0.000000e+00 
    76.5                0.000000e+00 0.000000e+00 0.000000e+00 0.000000e+00 0.000000e+00 0.000000e+00 0.000000e+00 0.000000e+00 0.000000e+00 0.000000e+00 0.000000e+00 0.000000e+00 
    77.5                0.000000e+00 0.000000e+00 0.000000e+00 0.000000e+00 0.000000e+00 0.000000e+00 0.000000e+00 0.000000e+00 0.000000e+00 0.000000e+00 0.000000e+00 0.000000e+00 
    78.5                0.000000e+00 0.000000e+00 0.000000e+00 0.000000e+00 0.000000e+00 0.000000e+00 0.000000e+00 0.000000e+00 0.000000e+00 0.000000e+00 0.000000e+00 0.000000e+00 
    79.5                0.000000e+00 0.000000e+00 0.000000e+00 0.000000e+00 0.000000e+00 0.000000e+00 0.000000e+00 0.000000e+00 0.000000e+00 0.000000e+00 0.000000e+00 0.000000e+00 


