# 80 rows of flux data
# 12 columns of flux data
# 
# total cross-sectional flux  2.040290e+00 /m^2/yr
#
#                             +x ram      -x wake      +y port -y starboard    +z zenith     -z nadir        Earth          Sun     anti-Sun      rot (x)      rot (y)      rot (z) 
# average speed (km/s)         23.99        23.99        17.39        24.11        23.56        23.43        23.99        24.29        24.29        23.18        23.83        23.75 
# total flux (#/m2/yr)  6.376651e-01 6.372750e-01 1.053246e-01 7.387364e-01 9.528929e-01 6.618590e-04 6.314229e-01 8.926510e-01 8.923562e-01 1.351190e+00 1.767107e+00 1.682504e+00 
# velocity (km/s)
     0.5                0.000000e+00 0.000000e+00 0.000000e+00 0.000000e+00 0.000000e+00 0.000000e+00 0.000000e+00 0.000000e+00 0.000000e+00 0.000000e+00 0.000000e+00 0.000000e+00 
     1.5                0.000000e+00 0.000000e+00 0.000000e+00 0.000000e+00 0.000000e+00 0.000000e+00 0.000000e+00 0.000000e+00 0.000000e+00 0.000000e+00 0.000000e+00 0.000000e+00 
     2.5                9.464888e-07 9.869747e-07 0.000000e+00 2.955627e-06 5.033552e-06 0.000000e+00 9.837902e-07 7.421275e-07 7.274562e-07 5.905839e-06 5.547084e-06 3.750143e-06 
     3.5                7.621692e-05 7.726534e-05 6.159329e-06 1.084190e-04 1.683661e-04 2.424068e-08 7.690580e-05 5.740346e-05 5.731978e-05 2.153892e-04 2.506730e-04 2.132282e-04 
     4.5                4.118424e-04 4.142103e-04 6.719529e-05 5.663966e-04 8.169201e-04 2.553295e-07 4.118789e-04 3.264765e-04 3.261460e-04 1.122565e-03 1.289538e-03 1.155863e-03 
     5.5                1.296055e-03 1.299532e-03 3.319237e-04 1.619555e-03 2.329113e-03 1.130353e-06 1.293141e-03 1.130887e-03 1.129577e-03 3.356074e-03 3.876716e-03 3.591703e-03 
     6.5                2.588405e-03 2.591229e-03 8.514079e-04 3.068298e-03 4.453365e-03 2.734485e-06 2.578376e-03 2.348828e-03 2.347153e-03 6.584294e-03 7.603748e-03 7.159396e-03 
     7.5                4.581523e-03 4.584681e-03 1.616641e-03 5.465237e-03 7.951677e-03 4.943797e-06 4.562642e-03 4.274141e-03 4.271814e-03 1.181402e-02 1.350066e-02 1.277121e-02 
     8.5                7.192161e-03 7.193111e-03 2.596331e-03 8.269031e-03 1.189581e-02 7.997377e-06 7.157994e-03 6.890288e-03 6.888537e-03 1.794634e-02 2.075095e-02 1.987484e-02 
     9.5                9.457328e-03 9.456718e-03 3.687862e-03 1.041545e-02 1.531950e-02 1.149817e-05 9.404065e-03 9.765971e-03 9.762614e-03 2.326818e-02 2.708658e-02 2.598341e-02 
    10.5                1.153379e-02 1.153150e-02 5.032654e-03 1.257932e-02 1.879982e-02 1.458718e-05 1.145721e-02 1.298186e-02 1.297856e-02 2.875193e-02 3.310427e-02 3.193163e-02 
    11.5                1.356054e-02 1.355227e-02 6.347853e-03 1.441697e-02 2.180470e-02 1.727733e-05 1.345958e-02 1.603723e-02 1.603186e-02 3.352248e-02 3.867146e-02 3.756665e-02 
    12.5                1.486768e-02 1.485740e-02 7.046167e-03 1.585906e-02 2.391154e-02 1.911415e-05 1.474418e-02 1.862499e-02 1.861974e-02 3.677373e-02 4.243623e-02 4.133943e-02 
    13.5                1.667212e-02 1.666689e-02 7.574779e-03 1.820756e-02 2.698390e-02 2.010212e-05 1.653212e-02 2.177388e-02 2.176615e-02 4.126809e-02 4.766551e-02 4.647724e-02 
    14.5                1.846024e-02 1.845104e-02 7.662507e-03 2.043119e-02 2.951476e-02 2.165421e-05 1.829336e-02 2.481917e-02 2.481160e-02 4.487509e-02 5.251653e-02 5.119803e-02 
    15.5                2.008382e-02 2.007306e-02 7.174281e-03 2.246282e-02 3.166541e-02 2.312771e-05 1.989463e-02 2.769840e-02 2.769034e-02 4.753620e-02 5.684822e-02 5.507626e-02 
    16.5                2.152737e-02 2.151750e-02 6.885167e-03 2.430346e-02 3.362592e-02 2.416578e-05 2.131953e-02 3.017228e-02 3.016197e-02 5.002305e-02 6.069211e-02 5.862688e-02 
    17.5                2.283557e-02 2.282569e-02 6.305383e-03 2.614371e-02 3.536404e-02 2.505155e-05 2.260806e-02 3.269666e-02 3.268655e-02 5.211652e-02 6.416566e-02 6.175782e-02 
    18.5                2.394831e-02 2.393300e-02 5.649485e-03 2.751876e-02 3.655548e-02 2.575945e-05 2.370131e-02 3.465816e-02 3.464566e-02 5.338010e-02 6.691009e-02 6.416506e-02 
    19.5                2.465468e-02 2.464159e-02 5.157048e-03 2.854789e-02 3.745619e-02 2.614728e-05 2.439891e-02 3.605125e-02 3.604003e-02 5.426796e-02 6.876474e-02 6.575586e-02 
    20.5                2.529629e-02 2.528662e-02 4.618775e-03 2.953512e-02 3.821921e-02 2.632371e-05 2.503285e-02 3.723161e-02 3.721966e-02 5.492447e-02 7.040236e-02 6.717953e-02 
    21.5                2.619744e-02 2.618663e-02 4.009173e-03 3.090214e-02 3.945833e-02 2.663160e-05 2.592017e-02 3.883668e-02 3.882332e-02 5.621776e-02 7.280553e-02 6.924732e-02 
    22.5                2.696470e-02 2.695202e-02 3.707207e-03 3.179333e-02 4.028874e-02 2.713232e-05 2.667798e-02 4.003842e-02 4.002578e-02 5.708175e-02 7.470989e-02 7.099261e-02 
    23.5                2.723950e-02 2.722537e-02 3.191134e-03 3.220981e-02 4.042809e-02 2.716711e-05 2.694789e-02 4.043460e-02 4.042190e-02 5.688577e-02 7.527232e-02 7.138850e-02 
    24.5                2.735864e-02 2.734476e-02 2.765178e-03 3.246683e-02 4.045714e-02 2.696363e-05 2.706592e-02 4.059896e-02 4.058563e-02 5.654184e-02 7.549461e-02 7.148462e-02 
    25.5                2.731281e-02 2.729794e-02 2.378337e-03 3.242175e-02 4.012514e-02 2.663800e-05 2.702115e-02 4.044125e-02 4.042756e-02 5.572747e-02 7.517341e-02 7.111323e-02 
    26.5                2.672374e-02 2.670640e-02 2.004312e-03 3.167333e-02 3.900642e-02 2.607043e-05 2.643771e-02 3.943060e-02 3.941740e-02 5.386748e-02 7.338324e-02 6.934905e-02 
    27.5                2.599291e-02 2.597832e-02 1.715371e-03 3.092964e-02 3.792207e-02 2.502398e-05 2.571714e-02 3.828905e-02 3.827670e-02 5.209622e-02 7.135712e-02 6.738023e-02 
    28.5                2.519163e-02 2.517542e-02 1.445652e-03 2.993965e-02 3.657529e-02 2.414565e-05 2.492521e-02 3.692454e-02 3.691206e-02 5.001048e-02 6.903075e-02 6.514675e-02 
    29.5                2.406605e-02 2.404977e-02 1.216484e-03 2.858437e-02 3.481430e-02 2.301531e-05 2.381285e-02 3.510941e-02 3.509731e-02 4.738917e-02 6.585718e-02 6.211771e-02 
    30.5                2.280462e-02 2.278931e-02 9.976599e-04 2.707263e-02 3.286792e-02 2.173945e-05 2.256779e-02 3.308110e-02 3.307103e-02 4.454515e-02 6.232125e-02 5.876129e-02 
    31.5                2.133709e-02 2.132106e-02 8.018899e-04 2.528327e-02 3.061454e-02 2.034001e-05 2.111677e-02 3.072830e-02 3.071789e-02 4.130828e-02 5.821477e-02 5.486985e-02 
    32.5                1.966156e-02 1.964544e-02 6.330691e-04 2.321052e-02 2.804163e-02 1.879358e-05 1.946121e-02 2.805375e-02 2.804492e-02 3.769659e-02 5.352588e-02 5.044350e-02 
    33.5                1.773675e-02 1.772137e-02 5.028281e-04 2.086444e-02 2.516669e-02 1.704153e-05 1.755818e-02 2.508231e-02 2.507320e-02 3.373323e-02 4.819710e-02 4.541950e-02 
    34.5                1.579218e-02 1.577692e-02 3.961143e-04 1.851458e-02 2.230108e-02 1.518807e-05 1.563471e-02 2.213096e-02 2.212373e-02 2.980459e-02 4.283763e-02 4.036762e-02 
    35.5                1.382405e-02 1.381009e-02 2.999524e-04 1.617004e-02 1.944755e-02 1.333783e-05 1.368795e-02 1.918622e-02 1.917940e-02 2.591332e-02 3.745119e-02 3.529101e-02 
    36.5                1.193808e-02 1.192515e-02 2.169805e-04 1.389400e-02 1.668699e-02 1.157034e-05 1.182266e-02 1.637624e-02 1.637135e-02 2.216909e-02 3.226311e-02 3.040357e-02 
    37.5                1.008211e-02 1.006990e-02 1.552328e-04 1.168147e-02 1.401451e-02 9.838567e-06 9.985405e-03 1.367247e-02 1.366810e-02 1.857159e-02 2.719407e-02 2.562889e-02 
    38.5                8.287804e-03 8.276724e-03 1.082227e-04 9.502853e-03 1.138932e-02 8.185861e-06 8.209831e-03 1.107227e-02 1.106849e-02 1.506092e-02 2.226352e-02 2.099294e-02 
    39.5                6.526583e-03 6.516627e-03 7.026350e-05 7.392074e-03 8.852347e-03 6.564676e-06 6.466111e-03 8.575706e-03 8.572700e-03 1.168168e-02 1.745285e-02 1.646529e-02 
    40.5                4.897828e-03 4.889148e-03 4.401879e-05 5.467485e-03 6.543500e-03 5.029280e-06 4.852992e-03 6.325127e-03 6.323032e-03 8.619747e-03 1.302990e-02 1.230129e-02 
    41.5                3.497469e-03 3.490588e-03 2.601793e-05 3.858978e-03 4.615911e-03 3.658903e-06 3.465760e-03 4.443890e-03 4.441989e-03 6.070635e-03 9.266378e-03 8.753126e-03 
    42.5                2.381978e-03 2.376385e-03 1.447231e-05 2.577666e-03 3.082066e-03 2.551752e-06 2.360432e-03 2.965132e-03 2.964369e-03 4.047935e-03 6.268201e-03 5.927021e-03 
    43.5                1.482097e-03 1.478140e-03 7.739162e-06 1.545394e-03 1.847482e-03 1.665228e-06 1.468980e-03 1.795470e-03 1.794692e-03 2.424158e-03 3.853051e-03 3.650495e-03 
    44.5                8.086534e-04 8.057208e-04 3.602643e-06 8.049878e-04 9.622157e-04 9.629690e-07 8.012042e-04 9.496145e-04 9.492470e-04 1.261560e-03 2.070990e-03 1.966856e-03 
    45.5                3.639855e-04 3.624575e-04 1.453002e-06 3.345438e-04 3.999381e-04 4.746136e-07 3.607192e-04 4.099877e-04 4.097097e-04 5.241708e-04 9.099705e-04 8.677711e-04 
    46.5                1.191382e-04 1.184363e-04 4.788255e-07 9.836052e-05 1.176176e-04 1.790726e-07 1.179604e-04 1.278651e-04 1.279003e-04 1.541881e-04 2.895325e-04 2.774926e-04 
    47.5                2.720892e-05 2.705756e-05 1.099284e-07 1.930605e-05 2.309534e-05 4.735607e-08 2.696670e-05 2.756954e-05 2.755067e-05 3.029277e-05 6.374020e-05 6.150695e-05 
    48.5                3.486462e-06 3.463239e-06 1.584349e-08 1.762439e-06 2.111809e-06 7.351631e-09 3.454489e-06 3.192000e-06 3.199560e-06 2.777218e-06 7.618114e-06 7.450121e-06 
    49.5                8.036409e-08 8.057364e-08 5.954796e-10 1.568833e-08 1.887823e-08 2.849022e-10 8.037391e-08 6.549058e-08 6.565218e-08 2.546528e-08 1.628443e-07 1.622826e-07 
    50.5                0.000000e+00 0.000000e+00 0.000000e+00 0.000000e+00 0.000000e+00 0.000000e+00 0.000000e+00 0.000000e+00 0.000000e+00 0.000000e+00 0.000000e+00 0.000000e+00 
    51.5                0.000000e+00 0.000000e+00 0.000000e+00 0.000000e+00 0.000000e+00 0.000000e+00 0.000000e+00 0.000000e+00 0.000000e+00 0.000000e+00 0.000000e+00 0.000000e+00 
    52.5                0.000000e+00 0.000000e+00 0.000000e+00 0.000000e+00 0.000000e+00 0.000000e+00 0.000000e+00 0.000000e+00 0.000000e+00 0.000000e+00 0.000000e+00 0.000000e+00 
    53.5                0.000000e+00 0.000000e+00 0.000000e+00 0.000000e+00 0.000000e+00 0.000000e+00 0.000000e+00 0.000000e+00 0.000000e+00 0.000000e+00 0.000000e+00 0.000000e+00 
    54.5                0.000000e+00 0.000000e+00 0.000000e+00 0.000000e+00 0.000000e+00 0.000000e+00 0.000000e+00 0.000000e+00 0.000000e+00 0.000000e+00 0.000000e+00 0.000000e+00 
    55.5                0.000000e+00 0.000000e+00 0.000000e+00 0.000000e+00 0.000000e+00 0.000000e+00 0.000000e+00 0.000000e+00 0.000000e+00 0.000000e+00 0.000000e+00 0.000000e+00 
    56.5                0.000000e+00 0.000000e+00 0.000000e+00 0.000000e+00 0.000000e+00 0.000000e+00 0.000000e+00 0.000000e+00 0.000000e+00 0.000000e+00 0.000000e+00 0.000000e+00 
    57.5                0.000000e+00 0.000000e+00 0.000000e+00 0.000000e+00 0.000000e+00 0.000000e+00 0.000000e+00 0.000000e+00 0.000000e+00 0.000000e+00 0.000000e+00 0.000000e+00 
    58.5                0.000000e+00 0.000000e+00 0.000000e+00 0.000000e+00 0.000000e+00 0.000000e+00 0.000000e+00 0.000000e+00 0.000000e+00 0.000000e+00 0.000000e+00 0.000000e+00 
    59.5                0.000000e+00 0.000000e+00 0.000000e+00 0.000000e+00 0.000000e+00 0.000000e+00 0.000000e+00 0.000000e+00 0.000000e+00 0.000000e+00 0.000000e+00 0.000000e+00 
    60.5                0.000000e+00 0.000000e+00 0.000000e+00 0.000000e+00 0.000000e+00 0.000000e+00 0.000000e+00 0.000000e+00 0.000000e+00 0.000000e+00 0.000000e+00 0.000000e+00 
    61.5                0.000000e+00 0.000000e+00 0.000000e+00 0.000000e+00 0.000000e+00 0.000000e+00 0.000000e+00 0.000000e+00 0.000000e+00 0.000000e+00 0.000000e+00 0.000000e+00 
    62.5                0.000000e+00 0.000000e+00 0.000000e+00 0.000000e+00 0.000000e+00 0.000000e+00 0.000000e+00 0.000000e+00 0.000000e+00 0.000000e+00 0.000000e+00 0.000000e+00 
    63.5                0.000000e+00 0.000000e+00 0.000000e+00 0.000000e+00 0.000000e+00 0.000000e+00 0.000000e+00 0.000000e+00 0.000000e+00 0.000000e+00 0.000000e+00 0.000000e+00 
    64.5                0.000000e+00 0.000000e+00 0.000000e+00 0.000000e+00 0.000000e+00 0.000000e+00 0.000000e+00 0.000000e+00 0.000000e+00 0.000000e+00 0.000000e+00 0.000000e+00 
    65.5                0.000000e+00 0.000000e+00 0.000000e+00 0.000000e+00 0.000000e+00 0.000000e+00 0.000000e+00 0.000000e+00 0.000000e+00 0.000000e+00 0.000000e+00 0.000000e+00 
    66.5                0.000000e+00 0.000000e+00 0.000000e+00 0.000000e+00 0.000000e+00 0.000000e+00 0.000000e+00 0.000000e+00 0.000000e+00 0.000000e+00 0.000000e+00 0.000000e+00 
    67.5                0.000000e+00 0.000000e+00 0.000000e+00 0.000000e+00 0.000000e+00 0.000000e+00 0.000000e+00 0.000000e+00 0.000000e+00 0.000000e+00 0.000000e+00 0.000000e+00 
    68.5                0.000000e+00 0.000000e+00 0.000000e+00 0.000000e+00 0.000000e+00 0.000000e+00 0.000000e+00 0.000000e+00 0.000000e+00 0.000000e+00 0.000000e+00 0.000000e+00 
    69.5                0.000000e+00 0.000000e+00 0.000000e+00 0.000000e+00 0.000000e+00 0.000000e+00 0.000000e+00 0.000000e+00 0.000000e+00 0.000000e+00 0.000000e+00 0.000000e+00 
    70.5                0.000000e+00 0.000000e+00 0.000000e+00 0.000000e+00 0.000000e+00 0.000000e+00 0.000000e+00 0.000000e+00 0.000000e+00 0.000000e+00 0.000000e+00 0.000000e+00 
    71.5                0.000000e+00 0.000000e+00 0.000000e+00 0.000000e+00 0.000000e+00 0.000000e+00 0.000000e+00 0.000000e+00 0.000000e+00 0.000000e+00 0.000000e+00 0.000000e+00 
    72.5                0.000000e+00 0.000000e+00 0.000000e+00 0.000000e+00 0.000000e+00 0.000000e+00 0.000000e+00 0.000000e+00 0.000000e+00 0.000000e+00 0.000000e+00 0.000000e+00 
    73.5                0.000000e+00 0.000000e+00 0.000000e+00 0.000000e+00 0.000000e+00 0.000000e+00 0.000000e+00 0.000000e+00 0.000000e+00 0.000000e+00 0.000000e+00 0.000000e+00 
    74.5                0.000000e+00 0.000000e+00 0.000000e+00 0.000000e+00 0.000000e+00 0.000000e+00 0.000000e+00 0.000000e+00 0.000000e+00 0.000000e+00 0.000000e+00 0.000000e+00 
    75.5                0.000000e+00 0.000000e+00 0.000000e+00 0.000000e+00 0.000000e+00 0.000000e+00 0.000000e+00 0.000000e+00 0.000000e+00 0.000000e+00 0.000000e+00 0.000000e+00 
    76.5                0.000000e+00 0.000000e+00 0.000000e+00 0.000000e+00 0.000000e+00 0.000000e+00 0.000000e+00 0.000000e+00 0.000000e+00 0.000000e+00 0.000000e+00 0.000000e+00 
    77.5                0.000000e+00 0.000000e+00 0.000000e+00 0.000000e+00 0.000000e+00 0.000000e+00 0.000000e+00 0.000000e+00 0.000000e+00 0.000000e+00 0.000000e+00 0.000000e+00 
    78.5                0.000000e+00 0.000000e+00 0.000000e+00 0.000000e+00 0.000000e+00 0.000000e+00 0.000000e+00 0.000000e+00 0.000000e+00 0.000000e+00 0.000000e+00 0.000000e+00 
    79.5                0.000000e+00 0.000000e+00 0.000000e+00 0.000000e+00 0.000000e+00 0.000000e+00 0.000000e+00 0.000000e+00 0.000000e+00 0.000000e+00 0.000000e+00 0.000000e+00 


