# 80 rows of flux data
# 12 columns of flux data
# 
# total cross-sectional flux  1.053343e+00 /m^2/yr
#
#                             +x ram      -x wake      +y port -y starboard    +z zenith     -z nadir        Earth          Sun     anti-Sun      rot (x)      rot (y)      rot (z) 
# average speed (km/s)         36.92        38.21        27.92        40.22        34.69        35.51        28.95        28.16        27.65        33.74        36.09        34.70 
# total flux (#/m2/yr)  2.604176e-01 2.183352e-01 3.685770e-01 2.190708e-01 5.061276e-01 3.798078e-04 7.435842e-02 1.734472e-01 1.673401e-01 8.718834e-01 7.746907e-01 8.320863e-01 
# velocity (km/s)
     0.5                0.000000e+00 0.000000e+00 0.000000e+00 0.000000e+00 0.000000e+00 0.000000e+00 0.000000e+00 0.000000e+00 0.000000e+00 0.000000e+00 0.000000e+00 0.000000e+00 
     1.5                0.000000e+00 0.000000e+00 0.000000e+00 0.000000e+00 0.000000e+00 0.000000e+00 0.000000e+00 0.000000e+00 0.000000e+00 0.000000e+00 0.000000e+00 0.000000e+00 
     2.5                2.814629e-05 1.196081e-04 7.937644e-05 7.769627e-05 1.558114e-04 6.777882e-08 1.852750e-05 8.300603e-05 7.527566e-05 2.474990e-04 2.403815e-04 2.395018e-04 
     3.5                3.415349e-04 4.751967e-04 3.534603e-04 4.257024e-04 7.920048e-04 4.079473e-07 8.392079e-05 4.420161e-04 4.070806e-04 1.246302e-03 1.269373e-03 1.254087e-03 
     4.5                9.518193e-04 8.479119e-04 7.904013e-04 9.327180e-04 1.702261e-03 1.050040e-06 1.752679e-04 9.822949e-04 9.370262e-04 2.718580e-03 2.763917e-03 2.766172e-03 
     5.5                1.622246e-03 1.264421e-03 1.407130e-03 1.464605e-03 2.738034e-03 1.852286e-06 3.034081e-04 1.626799e-03 1.578869e-03 4.454688e-03 4.432799e-03 4.511744e-03 
     6.5                2.306523e-03 1.644310e-03 2.242914e-03 1.949946e-03 3.875284e-03 2.693658e-06 4.587842e-04 2.272828e-03 2.236779e-03 6.394979e-03 6.167495e-03 6.379297e-03 
     7.5                2.886412e-03 2.013688e-03 3.221380e-03 2.343011e-03 4.982330e-03 3.465909e-06 6.457259e-04 2.866653e-03 2.839769e-03 8.347224e-03 7.785358e-03 8.201514e-03 
     8.5                3.413682e-03 2.356278e-03 4.209014e-03 2.683060e-03 6.027915e-03 4.211444e-06 8.239493e-04 3.410630e-03 3.400469e-03 1.020940e-02 9.290856e-03 9.923232e-03 
     9.5                3.832420e-03 2.614724e-03 5.211852e-03 2.909381e-03 6.985311e-03 4.733939e-06 1.006325e-03 3.889966e-03 3.877221e-03 1.191046e-02 1.057347e-02 1.142630e-02 
    10.5                4.173387e-03 2.921150e-03 6.231501e-03 3.104908e-03 7.873385e-03 5.347774e-06 1.191345e-03 4.356665e-03 4.327373e-03 1.355364e-02 1.178242e-02 1.289737e-02 
    11.5                4.544851e-03 3.148530e-03 7.468421e-03 3.259613e-03 8.898145e-03 5.768304e-06 1.390069e-03 4.825211e-03 4.778740e-03 1.540855e-02 1.305989e-02 1.448003e-02 
    12.5                4.816716e-03 3.323427e-03 8.451967e-03 3.342723e-03 9.615997e-03 6.280804e-06 1.586299e-03 5.164287e-03 5.107365e-03 1.680282e-02 1.396984e-02 1.567455e-02 
    13.5                4.977956e-03 3.357912e-03 9.396050e-03 3.276062e-03 1.020143e-02 6.303714e-06 1.713457e-03 5.296416e-03 5.237618e-03 1.787906e-02 1.459580e-02 1.655668e-02 
    14.5                4.876092e-03 3.480880e-03 9.921875e-03 3.227310e-03 1.049777e-02 6.347008e-06 1.783184e-03 5.355057e-03 5.287177e-03 1.845061e-02 1.485036e-02 1.697793e-02 
    15.5                5.030887e-03 3.543212e-03 1.090148e-02 3.182183e-03 1.110559e-02 6.403220e-06 1.944095e-03 5.472004e-03 5.404859e-03 1.961387e-02 1.550072e-02 1.790878e-02 
    16.5                4.983848e-03 3.593005e-03 1.116589e-02 3.133508e-03 1.123039e-02 6.343104e-06 1.974277e-03 5.484745e-03 5.417472e-03 1.986285e-02 1.559669e-02 1.808318e-02 
    17.5                5.001655e-03 3.605416e-03 1.158289e-02 3.088203e-03 1.142505e-02 6.534712e-06 2.056162e-03 5.453982e-03 5.385618e-03 2.030198e-02 1.577851e-02 1.841109e-02 
    18.5                4.967535e-03 3.669224e-03 1.204244e-02 3.024134e-03 1.162894e-02 6.724471e-06 2.146928e-03 5.417718e-03 5.347729e-03 2.076233e-02 1.595981e-02 1.875516e-02 
    19.5                4.924311e-03 3.650411e-03 1.214393e-02 2.971288e-03 1.163731e-02 6.554506e-06 2.183161e-03 5.305027e-03 5.232020e-03 2.081820e-02 1.589588e-02 1.871867e-02 
    20.5                4.849659e-03 3.596339e-03 1.208539e-02 2.827285e-03 1.139239e-02 6.585414e-06 2.208510e-03 5.116729e-03 5.047222e-03 2.048604e-02 1.559047e-02 1.843010e-02 
    21.5                4.700588e-03 3.647252e-03 1.221533e-02 2.798460e-03 1.139091e-02 6.867523e-06 2.239161e-03 4.979595e-03 4.909263e-03 2.057916e-02 1.551459e-02 1.843272e-02 
    22.5                4.766995e-03 3.571954e-03 1.247070e-02 2.757600e-03 1.147235e-02 7.090566e-06 2.315841e-03 4.856837e-03 4.784301e-03 2.082832e-02 1.556918e-02 1.859229e-02 
    23.5                4.545797e-03 3.428812e-03 1.182913e-02 2.582349e-03 1.082864e-02 6.814452e-06 2.217725e-03 4.549715e-03 4.483562e-03 1.970312e-02 1.475306e-02 1.761876e-02 
    24.5                4.285961e-03 3.347359e-03 1.135093e-02 2.467415e-03 1.033945e-02 6.756084e-06 2.170825e-03 4.281761e-03 4.217486e-03 1.889342e-02 1.409036e-02 1.685758e-02 
    25.5                4.188904e-03 3.258244e-03 1.112373e-02 2.342613e-03 1.005478e-02 6.431232e-06 2.150270e-03 4.046844e-03 3.984060e-03 1.840166e-02 1.370117e-02 1.640587e-02 
    26.5                4.014359e-03 3.234899e-03 1.067626e-02 2.322710e-03 9.675315e-03 6.642859e-06 2.110412e-03 3.839497e-03 3.774159e-03 1.779093e-02 1.323805e-02 1.585041e-02 
    27.5                3.952905e-03 3.110092e-03 1.023023e-02 2.293268e-03 9.257157e-03 7.074037e-06 2.079461e-03 3.636549e-03 3.572139e-03 1.715387e-02 1.275116e-02 1.528979e-02 
    28.5                3.779094e-03 3.045125e-03 9.763944e-03 2.247700e-03 8.811202e-03 7.414437e-06 2.021464e-03 3.375080e-03 3.310255e-03 1.645164e-02 1.221426e-02 1.467436e-02 
    29.5                3.641074e-03 2.828034e-03 9.185622e-03 2.169232e-03 8.314282e-03 7.041292e-06 1.906792e-03 3.065462e-03 2.999691e-03 1.556292e-02 1.154692e-02 1.386253e-02 
    30.5                3.372367e-03 2.755146e-03 8.787177e-03 2.020169e-03 7.882469e-03 6.792605e-06 1.828308e-03 2.842226e-03 2.780971e-03 1.479194e-02 1.093272e-02 1.316124e-02 
    31.5                3.264804e-03 2.752216e-03 8.471942e-03 2.038576e-03 7.605381e-03 7.234079e-06 1.819488e-03 2.678921e-03 2.616391e-03 1.440665e-02 1.062758e-02 1.281066e-02 
    32.5                3.181723e-03 2.648153e-03 7.825537e-03 2.059999e-03 7.162005e-03 7.067882e-06 1.697496e-03 2.466688e-03 2.400515e-03 1.360558e-02 1.013229e-02 1.213043e-02 
    33.5                3.095455e-03 2.712941e-03 7.414145e-03 2.158274e-03 6.938671e-03 7.249582e-06 1.635627e-03 2.287616e-03 2.214653e-03 1.323860e-02 9.943444e-03 1.183065e-02 
    34.5                3.154749e-03 2.719879e-03 7.386216e-03 2.226994e-03 6.969440e-03 7.296068e-06 1.639590e-03 2.203755e-03 2.127068e-03 1.332758e-02 1.002297e-02 1.189662e-02 
    35.5                3.039767e-03 2.628761e-03 6.597213e-03 2.276270e-03 6.478872e-03 7.098518e-06 1.478773e-03 2.063720e-03 1.984782e-03 1.240416e-02 9.480903e-03 1.112835e-02 
    36.5                2.949879e-03 2.684844e-03 6.313708e-03 2.356759e-03 6.352334e-03 7.205195e-06 1.427864e-03 1.935418e-03 1.852744e-03 1.217890e-02 9.366776e-03 1.093216e-02 
    37.5                3.072497e-03 2.768232e-03 6.282646e-03 2.443416e-03 6.450104e-03 7.089823e-06 1.418324e-03 1.877429e-03 1.791007e-03 1.231936e-02 9.606479e-03 1.112042e-02 
    38.5                2.986298e-03 2.974077e-03 5.902036e-03 2.625044e-03 6.432551e-03 6.949220e-06 1.331821e-03 1.807237e-03 1.712646e-03 1.218948e-02 9.690326e-03 1.103950e-02 
    39.5                3.226251e-03 2.862779e-03 5.670511e-03 2.802747e-03 6.473144e-03 7.168169e-06 1.290371e-03 1.758129e-03 1.657137e-03 1.222709e-02 9.835081e-03 1.109638e-02 
    40.5                3.172622e-03 2.956459e-03 5.495928e-03 2.826320e-03 6.361104e-03 7.329280e-06 1.259223e-03 1.687678e-03 1.587647e-03 1.203982e-02 9.787226e-03 1.100379e-02 
    41.5                3.208166e-03 3.265938e-03 5.254715e-03 3.124166e-03 6.564662e-03 7.420347e-06 1.202224e-03 1.673118e-03 1.561640e-03 1.229238e-02 1.022385e-02 1.129981e-02 
    42.5                3.494037e-03 3.171148e-03 4.818900e-03 3.355634e-03 6.623905e-03 7.081985e-06 1.095599e-03 1.666715e-03 1.547280e-03 1.220819e-02 1.043671e-02 1.129505e-02 
    43.5                3.400214e-03 3.353771e-03 4.443342e-03 3.363411e-03 6.459426e-03 6.857611e-06 1.010670e-03 1.615703e-03 1.497162e-03 1.178789e-02 1.038004e-02 1.109055e-02 
    44.5                3.557527e-03 3.691893e-03 4.394292e-03 3.757854e-03 6.929975e-03 7.260286e-06 1.003050e-03 1.669744e-03 1.537596e-03 1.249891e-02 1.115307e-02 1.175506e-02 
    45.5                3.922640e-03 3.666912e-03 4.229829e-03 3.925830e-03 7.083917e-03 7.127118e-06 9.602791e-04 1.671844e-03 1.536586e-03 1.265669e-02 1.154606e-02 1.203456e-02 
    46.5                3.841303e-03 3.765019e-03 3.957235e-03 4.024803e-03 7.060257e-03 6.898645e-06 8.930384e-04 1.635965e-03 1.498650e-03 1.249595e-02 1.154987e-02 1.192753e-02 
    47.5                3.988108e-03 4.016614e-03 3.786602e-03 4.246231e-03 7.264333e-03 7.024786e-06 8.531583e-04 1.658103e-03 1.515415e-03 1.268251e-02 1.203429e-02 1.228985e-02 
    48.5                4.077211e-03 4.398499e-03 3.538689e-03 4.581436e-03 7.660039e-03 6.808085e-06 7.918692e-04 1.708884e-03 1.557194e-03 1.304924e-02 1.271513e-02 1.275363e-02 
    49.5                4.517079e-03 4.833163e-03 3.451252e-03 5.018674e-03 8.206901e-03 7.180744e-06 7.714649e-04 1.774938e-03 1.610423e-03 1.378029e-02 1.384587e-02 1.373439e-02 
    50.5                4.807354e-03 5.533397e-03 3.305673e-03 5.625278e-03 9.003275e-03 7.415910e-06 7.376947e-04 1.866724e-03 1.684442e-03 1.478329e-02 1.526807e-02 1.491394e-02 
    51.5                5.485547e-03 6.089256e-03 3.113311e-03 6.428449e-03 1.007659e-02 7.531974e-06 6.907146e-04 1.962065e-03 1.757080e-03 1.606870e-02 1.709301e-02 1.640077e-02 
    52.5                6.180925e-03 6.088319e-03 2.841629e-03 6.804587e-03 1.052632e-02 7.445174e-06 6.298590e-04 2.011739e-03 1.798980e-03 1.643193e-02 1.799833e-02 1.707511e-02 
    53.5                6.293061e-03 6.170069e-03 2.552526e-03 6.902599e-03 1.057884e-02 7.200628e-06 5.662076e-04 2.026350e-03 1.815261e-03 1.624962e-02 1.819864e-02 1.712221e-02 
    54.5                6.407778e-03 5.813791e-03 2.285501e-03 6.819095e-03 1.038863e-02 6.829891e-06 5.084767e-04 2.002788e-03 1.798319e-03 1.576998e-02 1.786356e-02 1.669167e-02 
    55.5                6.338370e-03 5.858434e-03 2.117215e-03 6.668998e-03 1.012585e-02 6.694855e-06 4.723461e-04 1.969880e-03 1.773914e-03 1.527254e-02 1.763441e-02 1.644568e-02 
    56.5                6.197627e-03 5.583558e-03 1.902723e-03 6.552666e-03 9.892080e-03 6.295596e-06 4.260491e-04 1.921607e-03 1.732643e-03 1.479406e-02 1.712318e-02 1.588486e-02 
    57.5                5.968180e-03 5.097651e-03 1.675514e-03 6.106339e-03 9.195094e-03 5.854770e-06 3.775828e-04 1.820660e-03 1.648553e-03 1.365867e-02 1.601783e-02 1.481666e-02 
    58.5                5.490181e-03 4.888038e-03 1.443029e-03 5.724137e-03 8.591682e-03 5.364887e-06 3.274143e-04 1.683486e-03 1.525523e-03 1.264103e-02 1.499001e-02 1.380865e-02 
    59.5                5.187683e-03 4.659997e-03 1.246329e-03 5.462497e-03 8.158977e-03 4.965727e-06 2.852149e-04 1.547193e-03 1.399148e-03 1.190121e-02 1.422810e-02 1.305341e-02 
    60.5                5.006390e-03 4.233639e-03 1.091130e-03 5.103515e-03 7.605024e-03 4.611312e-06 2.519681e-04 1.383405e-03 1.247783e-03 1.100808e-02 1.331447e-02 1.218180e-02 
    61.5                4.536976e-03 3.687321e-03 8.679220e-04 4.620826e-03 6.849837e-03 3.999491e-06 2.024951e-04 1.212071e-03 1.091981e-03 9.792161e-03 1.191812e-02 1.084141e-02 
    62.5                4.186484e-03 3.021119e-03 7.062843e-04 3.952014e-03 5.851336e-03 3.481613e-06 1.665353e-04 1.033135e-03 9.326624e-04 8.309161e-03 1.032189e-02 9.388225e-03 
    63.5                3.421548e-03 2.460814e-03 5.211031e-04 3.234113e-03 4.768635e-03 2.809393e-06 1.242170e-04 8.483151e-04 7.679704e-04 6.719508e-03 8.421072e-03 7.638763e-03 
    64.5                2.816686e-03 1.969982e-03 4.020913e-04 2.623825e-03 3.864958e-03 2.264648e-06 9.661552e-05 6.723749e-04 6.084015e-04 5.416898e-03 6.842079e-03 6.196290e-03 
    65.5                2.238038e-03 1.503212e-03 2.859356e-04 2.072674e-03 3.041948e-03 1.736371e-06 6.956948e-05 5.079689e-04 4.585187e-04 4.225766e-03 5.363991e-03 4.841079e-03 
    66.5                1.793671e-03 1.068309e-03 1.988494e-04 1.573250e-03 2.303276e-03 1.321077e-06 4.901607e-05 3.647856e-04 3.280404e-04 3.174769e-03 4.084402e-03 3.681181e-03 
    67.5                1.316578e-03 6.835285e-04 1.251577e-04 1.088086e-03 1.589011e-03 9.168574e-07 3.139523e-05 2.377374e-04 2.129581e-04 2.171246e-03 2.839564e-03 2.556188e-03 
    68.5                8.855465e-04 3.829957e-04 6.946323e-05 6.872302e-04 1.000715e-03 5.822324e-07 1.784286e-05 1.373474e-04 1.220175e-04 1.352132e-03 1.795790e-03 1.612957e-03 
    69.5                5.420721e-04 1.690548e-04 3.362142e-05 3.759517e-04 5.459810e-04 3.234931e-07 8.912307e-06 6.724495e-05 5.907700e-05 7.299450e-04 9.944711e-04 8.935562e-04 
    70.5                2.716518e-04 4.308607e-05 1.274708e-05 1.584524e-04 2.296654e-04 1.479685e-07 3.490351e-06 2.563647e-05 2.228713e-05 3.038768e-04 4.315312e-04 3.888662e-04 
    71.5                9.859531e-05 5.656415e-06 3.611079e-06 4.280954e-05 6.203460e-05 5.436166e-08 1.060258e-06 6.507917e-06 5.638472e-06 8.186290e-05 1.324694e-04 1.218369e-04 
    72.5                1.724913e-05 1.184497e-07 4.452202e-07 5.876285e-06 8.493245e-06 1.014752e-08 1.501243e-07 9.143032e-07 8.007785e-07 1.108325e-05 2.082378e-05 1.945707e-05 
    73.5                1.320688e-06 0.000000e+00 1.292203e-08 2.893744e-07 4.156784e-07 9.199773e-10 7.546022e-09 3.892897e-08 3.359389e-08 5.293118e-07 1.426303e-06 1.377673e-06 
    74.5                0.000000e+00 0.000000e+00 0.000000e+00 0.000000e+00 0.000000e+00 0.000000e+00 0.000000e+00 0.000000e+00 0.000000e+00 0.000000e+00 0.000000e+00 0.000000e+00 
    75.5                0.000000e+00 0.000000e+00 0.000000e+00 0.000000e+00 0.000000e+00 0.000000e+00 0.000000e+00 0.000000e+00 0.000000e+00 0.000000e+00 0.000000e+00 0.000000e+00 
    76.5                0.000000e+00 0.000000e+00 0.000000e+00 0.000000e+00 0.000000e+00 0.000000e+00 0.000000e+00 0.000000e+00 0.000000e+00 0.000000e+00 0.000000e+00 0.000000e+00 
    77.5                0.000000e+00 0.000000e+00 0.000000e+00 0.000000e+00 0.000000e+00 0.000000e+00 0.000000e+00 0.000000e+00 0.000000e+00 0.000000e+00 0.000000e+00 0.000000e+00 
    78.5                0.000000e+00 0.000000e+00 0.000000e+00 0.000000e+00 0.000000e+00 0.000000e+00 0.000000e+00 0.000000e+00 0.000000e+00 0.000000e+00 0.000000e+00 0.000000e+00 
    79.5                0.000000e+00 0.000000e+00 0.000000e+00 0.000000e+00 0.000000e+00 0.000000e+00 0.000000e+00 0.000000e+00 0.000000e+00 0.000000e+00 0.000000e+00 0.000000e+00 


